Please wait for the temperature to reach 95
0 , 30.00 , 250.00 , 0.00 , 0
1 , 28.50 , 250.00 , 0.00 , 0
2 , 29.50 , 250.00 , 0.00 , 0
3 , 29.25 , 250.00 , 0.00 , 0
4 , 30.00 , 250.00 , 0.00 , 0
5 , 30.50 , 250.00 , 0.00 , 0
6 , 31.50 , 250.00 , 0.00 , 0
7 , 34.00 , 250.00 , 0.00 , 0
8 , 38.00 , 250.00 , 0.00 , 0
9 , 42.50 , 250.00 , 0.00 , 0
10 , 46.00 , 250.00 , 0.00 , 0
11 , 49.50 , 250.00 , 0.00 , 0
12 , 53.50 , 250.00 , 0.00 , 0
13 , 57.00 , 250.00 , 0.00 , 0
14 , 60.75 , 250.00 , 0.00 , 0
15 , 64.25 , 250.00 , 0.00 , 0
16 , 67.75 , 250.00 , 0.00 , 0
17 , 71.25 , 250.00 , 0.00 , 0
18 , 75.50 , 250.00 , 0.00 , 0
19 , 79.50 , 250.00 , 0.00 , 0
20 , 83.00 , 250.00 , 0.00 , 0
21 , 86.75 , 250.00 , 0.00 , 0
22 , 90.50 , 250.00 , 0.00 , 0
23 , 94.00 , 250.00 , 0.00 , 0
24 , 97.25 , 250.00 , 0.00 , 0
25 , 100.50 , 250.00 , 0.00 , 0
Temperature has reached 95, please wait 60s for the initial denaturing to complete
26 , 104.00 , 198.75 , 0.00 , 0
Initial Denaturing has completed, Amplification Loop will start now
Going to Denaturing Temperature
Denaturing DNA Now
27 , 106.50 , 125.75 , 0.00 , 1
28 , 104.00 , 71.50 , 0.00 , 1
29 , 103.00 , 118.50 , 0.00 , 1
30 , 102.50 , 136.00 , 0.00 , 1
31 , 103.25 , 143.75 , 0.00 , 1
32 , 104.75 , 126.12 , 0.00 , 1
33 , 104.75 , 92.75 , 0.00 , 1
34 , 105.25 , 89.37 , 0.00 , 1
35 , 105.00 , 75.75 , 0.00 , 1
36 , 104.75 , 77.25 , 0.00 , 1
Going to Annealing Temperature
37 , 103.25 , 77.25 , 0.00 , 1
38 , 101.75 , 77.25 , 0.00 , 1
39 , 99.00 , 77.25 , 0.00 , 1
40 , 95.25 , 77.25 , 0.00 , 1
41 , 91.50 , 77.25 , 0.00 , 1
42 , 88.00 , 77.25 , 0.00 , 1
43 , 84.75 , 77.25 , 0.00 , 1
44 , 81.25 , 77.25 , 0.00 , 1
45 , 78.00 , 77.25 , 0.00 , 1
46 , 75.25 , 77.25 , 0.00 , 1
47 , 71.75 , 77.25 , 0.00 , 1
48 , 69.75 , 77.25 , 0.00 , 1
49 , 67.25 , 77.25 , 0.00 , 1
50 , 64.75 , 77.25 , 0.00 , 1
51 , 62.75 , 77.25 , 0.00 , 1
52 , 60.50 , 77.25 , 0.00 , 1
53 , 58.50 , 77.25 , 0.00 , 1
54 , 57.25 , 77.25 , 0.00 , 1
Annealing DNA Now
55 , 55.25 , 77.25 , 100.00 , 1
56 , 54.25 , 77.25 , 125.00 , 1
57 , 54.75 , 77.25 , 125.00 , 1
58 , 57.25 , 77.25 , 125.00 , 1
59 , 60.25 , 77.25 , 99.37 , 1
60 , 62.50 , 77.25 , 37.25 , 1
61 , 63.25 , 77.25 , 0.00 , 1
62 , 62.50 , 77.25 , 0.00 , 1
63 , 61.25 , 77.25 , 0.00 , 1
64 , 60.75 , 77.25 , 4.50 , 1
65 , 60.00 , 77.25 , 12.13 , 1
66 , 59.00 , 77.25 , 25.12 , 1
67 , 58.75 , 77.25 , 43.63 , 1
68 , 58.50 , 77.25 , 47.25 , 1
69 , 59.25 , 77.25 , 51.00 , 1
70 , 58.25 , 77.25 , 34.38 , 1
71 , 59.25 , 77.25 , 53.25 , 1
72 , 59.50 , 77.25 , 31.62 , 1
73 , 60.00 , 77.25 , 24.87 , 1
74 , 59.50 , 77.25 , 12.88 , 1
Going to Extension Temperature
75 , 58.50 , 250.00 , 12.88 , 1
76 , 61.00 , 250.00 , 12.88 , 1
77 , 65.25 , 250.00 , 12.88 , 1
78 , 69.25 , 250.00 , 12.88 , 1
79 , 73.00 , 238.63 , 12.88 , 1
80 , 76.50 , 164.63 , 12.88 , 1
Extending DNA Now
81 , 78.25 , 93.87 , 12.88 , 1
82 , 79.00 , 57.25 , 12.88 , 1
83 , 78.25 , 40.25 , 12.88 , 1
84 , 77.25 , 53.63 , 12.88 , 1
85 , 76.50 , 72.50 , 12.88 , 1
86 , 76.00 , 86.75 , 12.88 , 1
87 , 76.00 , 96.25 , 12.88 , 1
88 , 75.75 , 95.75 , 12.88 , 1
89 , 76.50 , 100.37 , 12.88 , 1
90 , 77.00 , 84.62 , 12.88 , 1
91 , 77.50 , 73.62 , 12.88 , 1
92 , 77.25 , 62.38 , 12.88 , 1
93 , 77.25 , 66.25 , 12.88 , 1
94 , 76.25 , 65.12 , 12.88 , 1
95 , 76.25 , 84.50 , 12.88 , 1
96 , 75.50 , 83.87 , 12.88 , 1
97 , 76.75 , 98.62 , 12.88 , 1
98 , 76.50 , 72.75 , 12.88 , 1
99 , 76.50 , 77.00 , 12.88 , 1
100 , 76.50 , 76.25 , 12.88 , 1
101 , 76.50 , 75.50 , 12.88 , 1
102 , 76.75 , 74.75 , 12.88 , 1
103 , 76.50 , 68.87 , 12.88 , 1
104 , 76.00 , 73.12 , 12.88 , 1
105 , 76.00 , 82.62 , 12.88 , 1
106 , 75.75 , 82.12 , 12.88 , 1
107 , 75.75 , 86.75 , 12.88 , 1
108 , 76.00 , 86.37 , 12.88 , 1
109 , 76.00 , 80.87 , 12.88 , 1
110 , 76.25 , 80.37 , 12.88 , 1
111 , 75.75 , 80.37 , 12.88 , 1
Going to Denaturing Temperature
112 , 75.25 , 250.00 , 12.88 , 2
113 , 79.50 , 250.00 , 12.88 , 2
114 , 86.25 , 250.00 , 12.88 , 2
115 , 92.50 , 250.00 , 12.88 , 2
116 , 97.50 , 250.00 , 12.88 , 2
117 , 103.25 , 151.00 , 12.88 , 2
Denaturing DNA Now
118 , 105.75 , 33.38 , 12.88 , 2
119 , 105.00 , 0.00 , 12.88 , 2
120 , 102.50 , 0.00 , 12.88 , 2
121 , 99.75 , 38.75 , 12.88 , 2
122 , 97.50 , 92.87 , 12.88 , 2
123 , 96.75 , 138.13 , 12.88 , 2
124 , 99.00 , 153.75 , 12.88 , 2
125 , 101.00 , 108.25 , 12.88 , 2
126 , 102.50 , 66.75 , 12.88 , 2
127 , 102.50 , 34.50 , 12.88 , 2
Going to Annealing Temperature
128 , 101.25 , 34.50 , 12.88 , 2
129 , 98.50 , 34.50 , 12.88 , 2
130 , 95.00 , 34.50 , 12.88 , 2
131 , 91.50 , 34.50 , 12.88 , 2
132 , 88.25 , 34.50 , 12.88 , 2
133 , 84.75 , 34.50 , 12.88 , 2
134 , 81.75 , 34.50 , 12.88 , 2
135 , 78.50 , 34.50 , 12.88 , 2
136 , 75.00 , 34.50 , 12.88 , 2
137 , 72.50 , 34.50 , 12.88 , 2
138 , 69.00 , 34.50 , 12.88 , 2
139 , 67.25 , 34.50 , 12.88 , 2
140 , 64.75 , 34.50 , 12.88 , 2
141 , 63.00 , 34.50 , 12.88 , 2
142 , 61.00 , 34.50 , 12.88 , 2
143 , 58.75 , 34.50 , 12.88 , 2
144 , 57.25 , 34.50 , 12.88 , 2
Annealing DNA Now
145 , 55.50 , 34.50 , 98.87 , 2
146 , 54.00 , 34.50 , 125.00 , 2
147 , 56.00 , 34.50 , 125.00 , 2
148 , 58.25 , 34.50 , 125.00 , 2
149 , 61.00 , 34.50 , 78.87 , 2
150 , 63.00 , 34.50 , 21.37 , 2
151 , 63.50 , 34.50 , 0.00 , 2
152 , 62.75 , 34.50 , 0.00 , 2
153 , 61.75 , 34.50 , 0.00 , 2
154 , 60.50 , 34.50 , 0.00 , 2
155 , 60.00 , 34.50 , 15.63 , 2
156 , 59.25 , 34.50 , 23.62 , 2
157 , 58.50 , 34.50 , 37.00 , 2
158 , 58.50 , 34.50 , 50.75 , 2
159 , 58.25 , 34.50 , 49.50 , 2
160 , 59.00 , 34.50 , 53.38 , 2
161 , 59.75 , 34.50 , 36.88 , 2
162 , 59.50 , 34.50 , 20.00 , 2
163 , 59.75 , 34.50 , 23.25 , 2
164 , 59.25 , 34.50 , 16.37 , 2
Going to Extension Temperature
165 , 58.75 , 250.00 , 16.37 , 2
166 , 60.75 , 250.00 , 16.37 , 2
167 , 65.50 , 250.00 , 16.37 , 2
168 , 70.00 , 250.00 , 16.37 , 2
169 , 73.75 , 221.75 , 16.37 , 2
Extending DNA Now
170 , 77.25 , 147.38 , 16.37 , 2
171 , 79.50 , 76.25 , 16.37 , 2
172 , 79.50 , 29.00 , 16.37 , 2
173 , 78.25 , 26.75 , 16.37 , 2
174 , 77.50 , 50.13 , 16.37 , 2
175 , 76.50 , 63.88 , 16.37 , 2
176 , 75.50 , 83.12 , 16.37 , 2
177 , 75.25 , 102.87 , 16.37 , 2
178 , 75.75 , 107.75 , 16.37 , 2
179 , 75.50 , 97.37 , 16.37 , 2
180 , 76.50 , 102.12 , 16.37 , 2
181 , 76.75 , 81.37 , 16.37 , 2
182 , 76.75 , 75.50 , 16.37 , 2
183 , 76.50 , 74.62 , 16.37 , 2
184 , 76.50 , 78.87 , 16.37 , 2
185 , 75.75 , 78.12 , 16.37 , 2
186 , 76.25 , 92.75 , 16.37 , 2
187 , 75.75 , 82.12 , 16.37 , 2
188 , 76.25 , 91.75 , 16.37 , 2
189 , 76.00 , 81.12 , 16.37 , 2
190 , 76.25 , 85.62 , 16.37 , 2
191 , 76.25 , 80.00 , 16.37 , 2
192 , 76.25 , 79.37 , 16.37 , 2
193 , 76.25 , 78.75 , 16.37 , 2
194 , 76.00 , 78.12 , 16.37 , 2
195 , 75.75 , 82.62 , 16.37 , 2
196 , 75.50 , 87.25 , 16.37 , 2
197 , 76.50 , 92.00 , 16.37 , 2
198 , 76.25 , 71.25 , 16.37 , 2
199 , 76.00 , 75.62 , 16.37 , 2
200 , 76.00 , 75.62 , 16.37 , 2
Going to Denaturing Temperature
201 , 75.75 , 250.00 , 16.37 , 3
202 , 80.00 , 250.00 , 16.37 , 3
203 , 87.00 , 250.00 , 16.37 , 3
204 , 93.00 , 250.00 , 16.37 , 3
205 , 98.25 , 239.75 , 16.37 , 3
Denaturing DNA Now
206 , 103.25 , 134.63 , 16.37 , 3
207 , 105.00 , 32.00 , 16.37 , 3
208 , 103.50 , 0.00 , 16.37 , 3
209 , 100.75 , 20.75 , 16.37 , 3
210 , 98.50 , 74.37 , 16.37 , 3
211 , 97.25 , 119.12 , 16.37 , 3
212 , 98.00 , 144.50 , 16.37 , 3
213 , 100.00 , 129.50 , 16.37 , 3
214 , 102.25 , 88.50 , 16.37 , 3
215 , 103.00 , 41.38 , 16.37 , 3
Going to Annealing Temperature
216 , 102.00 , 41.38 , 16.37 , 3
217 , 99.50 , 41.38 , 16.37 , 3
218 , 96.25 , 41.38 , 16.37 , 3
219 , 92.00 , 41.38 , 16.37 , 3
220 , 88.50 , 41.38 , 16.37 , 3
221 , 85.00 , 41.38 , 16.37 , 3
222 , 81.75 , 41.38 , 16.37 , 3
223 , 78.50 , 41.38 , 16.37 , 3
224 , 75.50 , 41.38 , 16.37 , 3
225 , 72.75 , 41.38 , 16.37 , 3
226 , 69.75 , 41.38 , 16.37 , 3
227 , 67.50 , 41.38 , 16.37 , 3
228 , 65.00 , 41.38 , 16.37 , 3
229 , 63.25 , 41.38 , 16.37 , 3
230 , 61.00 , 41.38 , 16.37 , 3
231 , 59.00 , 41.38 , 16.37 , 3
232 , 56.75 , 41.38 , 16.37 , 3
Annealing DNA Now
233 , 55.50 , 41.38 , 110.00 , 3
234 , 54.25 , 41.38 , 125.00 , 3
235 , 55.75 , 41.38 , 125.00 , 3
236 , 58.50 , 41.38 , 125.00 , 3
237 , 61.25 , 41.38 , 73.75 , 3
238 , 62.50 , 41.38 , 16.12 , 3
239 , 62.75 , 41.38 , 0.00 , 3
240 , 62.25 , 41.38 , 0.00 , 3
241 , 61.50 , 41.38 , 0.00 , 3
242 , 60.50 , 41.38 , 0.00 , 3
243 , 59.50 , 41.38 , 16.37 , 3
244 , 58.75 , 41.38 , 34.63 , 3
245 , 59.00 , 41.38 , 48.25 , 3
246 , 58.75 , 41.38 , 41.75 , 3
247 , 58.75 , 41.38 , 45.38 , 3
248 , 59.25 , 41.38 , 44.00 , 3
249 , 59.25 , 41.38 , 32.38 , 3
250 , 59.25 , 41.38 , 30.75 , 3
251 , 59.75 , 41.38 , 29.12 , 3
252 , 59.50 , 41.38 , 17.25 , 3
Going to Extension Temperature
253 , 59.25 , 250.00 , 17.25 , 3
254 , 61.50 , 250.00 , 17.25 , 3
255 , 65.25 , 250.00 , 17.25 , 3
256 , 70.00 , 250.00 , 17.25 , 3
257 , 73.75 , 222.00 , 17.25 , 3
Extending DNA Now
258 , 77.75 , 147.63 , 17.25 , 3
259 , 79.50 , 66.25 , 17.25 , 3
260 , 78.50 , 29.00 , 17.25 , 3
261 , 78.25 , 47.25 , 17.25 , 3
262 , 76.75 , 50.63 , 17.25 , 3
263 , 76.25 , 79.75 , 17.25 , 3
264 , 75.75 , 89.12 , 17.25 , 3
265 , 75.50 , 98.75 , 17.25 , 3
266 , 75.75 , 103.50 , 17.25 , 3
267 , 76.75 , 98.12 , 17.25 , 3
268 , 77.25 , 77.25 , 17.25 , 3
269 , 77.00 , 66.12 , 17.25 , 3
270 , 76.50 , 70.12 , 17.25 , 3
271 , 75.75 , 79.37 , 17.25 , 3
272 , 75.75 , 94.00 , 17.25 , 3
273 , 76.00 , 93.62 , 17.25 , 3
274 , 76.25 , 88.12 , 17.25 , 3
275 , 76.25 , 82.50 , 17.25 , 3
276 , 77.00 , 81.87 , 17.25 , 3
277 , 77.00 , 65.87 , 17.25 , 3
278 , 76.00 , 64.87 , 17.25 , 3
279 , 76.25 , 84.37 , 17.25 , 3
280 , 76.00 , 78.75 , 17.25 , 3
281 , 75.25 , 83.25 , 17.25 , 3
282 , 75.50 , 98.12 , 17.25 , 3
283 , 76.25 , 92.87 , 17.25 , 3
284 , 76.50 , 77.25 , 17.25 , 3
285 , 76.50 , 71.50 , 17.25 , 3
286 , 76.75 , 70.75 , 17.25 , 3
287 , 76.25 , 64.87 , 17.25 , 3
288 , 75.75 , 64.87 , 17.25 , 3
Going to Denaturing Temperature
289 , 75.75 , 250.00 , 17.25 , 4
290 , 79.50 , 250.00 , 17.25 , 4
291 , 86.25 , 250.00 , 17.25 , 4
292 , 92.25 , 250.00 , 17.25 , 4
293 , 98.25 , 250.00 , 17.25 , 4
Denaturing DNA Now
294 , 103.75 , 135.00 , 17.25 , 4
295 , 106.00 , 22.12 , 17.25 , 4
296 , 104.75 , 0.00 , 17.25 , 4
297 , 102.25 , 0.00 , 17.25 , 4
298 , 99.75 , 42.63 , 17.25 , 4
299 , 97.25 , 91.75 , 17.25 , 4
300 , 96.50 , 142.13 , 17.25 , 4
301 , 98.00 , 157.88 , 17.25 , 4
302 , 101.25 , 127.87 , 17.25 , 4
303 , 103.50 , 61.25 , 17.25 , 4
Going to Annealing Temperature
304 , 103.25 , 61.25 , 17.25 , 4
305 , 101.00 , 61.25 , 17.25 , 4
306 , 96.75 , 61.25 , 17.25 , 4
307 , 93.50 , 61.25 , 17.25 , 4
308 , 89.25 , 61.25 , 17.25 , 4
309 , 86.25 , 61.25 , 17.25 , 4
310 , 82.25 , 61.25 , 17.25 , 4
311 , 79.50 , 61.25 , 17.25 , 4
312 , 76.75 , 61.25 , 17.25 , 4
313 , 74.00 , 61.25 , 17.25 , 4
314 , 71.25 , 61.25 , 17.25 , 4
315 , 68.75 , 61.25 , 17.25 , 4
316 , 65.75 , 61.25 , 17.25 , 4
317 , 63.25 , 61.25 , 17.25 , 4
318 , 61.50 , 61.25 , 17.25 , 4
319 , 59.25 , 61.25 , 17.25 , 4
320 , 58.00 , 61.25 , 17.25 , 4
Annealing DNA Now
321 , 56.25 , 61.25 , 85.00 , 4
322 , 55.00 , 61.25 , 119.87 , 4
323 , 55.75 , 61.25 , 125.00 , 4
324 , 58.50 , 61.25 , 125.00 , 4
325 , 60.75 , 61.25 , 73.75 , 4
326 , 62.75 , 61.25 , 26.37 , 4
327 , 62.75 , 61.25 , 0.00 , 4
328 , 62.50 , 61.25 , 0.00 , 4
329 , 61.25 , 61.25 , 0.00 , 4
330 , 60.50 , 61.25 , 3.75 , 4
331 , 59.50 , 61.25 , 16.50 , 4
332 , 59.00 , 61.25 , 34.75 , 4
333 , 59.00 , 61.25 , 43.25 , 4
334 , 58.50 , 61.25 , 41.75 , 4
335 , 58.75 , 61.25 , 50.50 , 4
336 , 59.25 , 61.25 , 44.13 , 4
337 , 59.50 , 61.25 , 32.50 , 4
338 , 59.25 , 61.25 , 25.75 , 4
339 , 59.25 , 61.25 , 29.12 , 4
340 , 59.50 , 61.25 , 27.50 , 4
Going to Extension Temperature
341 , 58.75 , 250.00 , 27.50 , 4
342 , 61.00 , 250.00 , 27.50 , 4
343 , 65.50 , 250.00 , 27.50 , 4
344 , 69.50 , 250.00 , 27.50 , 4
345 , 73.25 , 232.88 , 27.50 , 4
346 , 76.50 , 158.75 , 27.50 , 4
Extending DNA Now
347 , 78.75 , 93.00 , 27.50 , 4
348 , 79.00 , 46.13 , 27.50 , 4
349 , 78.00 , 39.13 , 27.50 , 4
350 , 77.25 , 57.63 , 27.50 , 4
351 , 75.50 , 71.50 , 27.50 , 4
352 , 75.25 , 106.25 , 27.50 , 4
353 , 75.50 , 111.12 , 27.50 , 4
354 , 76.25 , 105.87 , 27.50 , 4
355 , 76.75 , 90.25 , 27.50 , 4
356 , 76.75 , 79.37 , 27.50 , 4
357 , 76.75 , 78.50 , 27.50 , 4
358 , 76.50 , 77.62 , 27.50 , 4
359 , 76.50 , 81.87 , 27.50 , 4
360 , 75.50 , 81.12 , 27.50 , 4
361 , 76.25 , 100.87 , 27.50 , 4
362 , 76.50 , 85.25 , 27.50 , 4
363 , 76.50 , 79.50 , 27.50 , 4
364 , 76.25 , 78.75 , 27.50 , 4
365 , 76.00 , 83.12 , 27.50 , 4
366 , 76.25 , 87.62 , 27.50 , 4
367 , 76.25 , 82.00 , 27.50 , 4
368 , 75.75 , 81.37 , 27.50 , 4
369 , 76.00 , 91.00 , 27.50 , 4
370 , 76.00 , 85.50 , 27.50 , 4
371 , 76.50 , 85.00 , 27.50 , 4
372 , 76.25 , 74.25 , 27.50 , 4
373 , 75.50 , 78.62 , 27.50 , 4
374 , 76.25 , 93.37 , 27.50 , 4
375 , 76.00 , 77.75 , 27.50 , 4
376 , 76.25 , 82.25 , 27.50 , 4
377 , 76.25 , 82.25 , 27.50 , 4
Going to Denaturing Temperature
378 , 75.75 , 250.00 , 27.50 , 5
379 , 80.25 , 250.00 , 27.50 , 5
380 , 86.25 , 250.00 , 27.50 , 5
381 , 91.75 , 250.00 , 27.50 , 5
382 , 97.25 , 250.00 , 27.50 , 5
383 , 101.75 , 157.50 , 27.50 , 5
Denaturing DNA Now
384 , 104.75 , 65.62 , 27.50 , 5
385 , 104.50 , 2.25 , 27.50 , 5
386 , 101.75 , 4.00 , 27.50 , 5
387 , 99.25 , 57.13 , 27.50 , 5
388 , 98.00 , 106.50 , 27.50 , 5
389 , 98.25 , 131.50 , 27.50 , 5
390 , 99.50 , 126.37 , 27.50 , 5
391 , 101.50 , 100.62 , 27.50 , 5
393 , 102.25 , 58.88 , 27.50 , 5
Going to Annealing Temperature
394 , 101.25 , 58.88 , 27.50 , 5
395 , 99.25 , 58.88 , 27.50 , 5
396 , 96.25 , 58.88 , 27.50 , 5
397 , 92.25 , 58.88 , 27.50 , 5
398 , 88.75 , 58.88 , 27.50 , 5
399 , 85.50 , 58.88 , 27.50 , 5
400 , 82.25 , 58.88 , 27.50 , 5
401 , 79.00 , 58.88 , 27.50 , 5
402 , 75.75 , 58.88 , 27.50 , 5
403 , 73.25 , 58.88 , 27.50 , 5
404 , 70.25 , 58.88 , 27.50 , 5
405 , 67.00 , 58.88 , 27.50 , 5
406 , 65.50 , 58.88 , 27.50 , 5
407 , 63.50 , 58.88 , 27.50 , 5
408 , 61.00 , 58.88 , 27.50 , 5
409 , 59.00 , 58.88 , 27.50 , 5
410 , 57.50 , 58.88 , 27.50 , 5
Annealing DNA Now
411 , 54.75 , 58.88 , 95.00 , 5
412 , 54.50 , 58.88 , 125.00 , 5
413 , 55.75 , 58.88 , 125.00 , 5
414 , 58.50 , 58.88 , 125.00 , 5
415 , 60.50 , 58.88 , 73.75 , 5
416 , 62.25 , 58.88 , 31.50 , 5
417 , 62.50 , 58.88 , 0.00 , 5
418 , 62.00 , 58.88 , 0.00 , 5
419 , 60.75 , 58.88 , 0.00 , 5
420 , 60.25 , 58.88 , 14.75 , 5
421 , 59.25 , 58.88 , 22.62 , 5
422 , 59.25 , 58.88 , 41.00 , 5
423 , 58.25 , 58.88 , 39.38 , 5
424 , 59.00 , 58.88 , 58.25 , 5
425 , 59.00 , 58.88 , 41.75 , 5
426 , 59.00 , 58.88 , 40.25 , 5
427 , 59.75 , 58.88 , 38.75 , 5
428 , 59.25 , 58.88 , 21.87 , 5
429 , 59.50 , 58.88 , 30.25 , 5
430 , 59.00 , 58.88 , 23.50 , 5
Going to Extension Temperature
431 , 59.25 , 250.00 , 23.50 , 5
432 , 61.50 , 250.00 , 23.50 , 5
433 , 65.50 , 250.00 , 23.50 , 5
434 , 69.25 , 250.00 , 23.50 , 5
435 , 72.50 , 238.75 , 23.50 , 5
436 , 76.00 , 175.00 , 23.50 , 5
Extending DNA Now
437 , 78.00 , 104.50 , 23.50 , 5
438 , 79.00 , 63.00 , 23.50 , 5
439 , 78.25 , 41.00 , 23.50 , 5
440 , 77.75 , 54.38 , 23.50 , 5
441 , 76.50 , 63.00 , 23.50 , 5
442 , 76.25 , 87.25 , 23.50 , 5
443 , 76.00 , 91.62 , 23.50 , 5
444 , 75.25 , 96.12 , 23.50 , 5
445 , 76.00 , 111.00 , 23.50 , 5
446 , 76.00 , 95.50 , 23.50 , 5
447 , 77.00 , 95.00 , 23.50 , 5
448 , 77.25 , 74.00 , 23.50 , 5
449 , 76.75 , 67.87 , 23.50 , 5
450 , 76.50 , 77.00 , 23.50 , 5
451 , 75.75 , 81.25 , 23.50 , 5
452 , 75.50 , 95.87 , 23.50 , 5
453 , 75.75 , 100.62 , 23.50 , 5
454 , 75.75 , 95.25 , 23.50 , 5
455 , 76.75 , 94.87 , 23.50 , 5
456 , 76.50 , 74.00 , 23.50 , 5
457 , 76.25 , 78.25 , 23.50 , 5
458 , 76.00 , 82.62 , 23.50 , 5
459 , 76.50 , 87.12 , 23.50 , 5
460 , 76.25 , 76.37 , 23.50 , 5
461 , 76.00 , 80.75 , 23.50 , 5
462 , 76.00 , 85.25 , 23.50 , 5
463 , 75.50 , 84.75 , 23.50 , 5
464 , 75.50 , 94.50 , 23.50 , 5
465 , 75.75 , 94.25 , 23.50 , 5
466 , 76.25 , 88.87 , 23.50 , 5
467 , 76.50 , 88.87 , 23.50 , 5
Going to Denaturing Temperature
468 , 76.75 , 250.00 , 23.50 , 6
469 , 80.50 , 250.00 , 23.50 , 6
470 , 86.25 , 250.00 , 23.50 , 6
471 , 91.75 , 250.00 , 23.50 , 6
472 , 96.50 , 250.00 , 23.50 , 6
473 , 101.25 , 173.75 , 23.50 , 6
Denaturing DNA Now
474 , 103.75 , 77.12 , 23.50 , 6
475 , 104.50 , 24.25 , 23.50 , 6
476 , 102.25 , 6.00 , 23.50 , 6
477 , 99.75 , 48.88 , 23.50 , 6
478 , 98.00 , 98.00 , 23.50 , 6
479 , 98.00 , 133.00 , 23.50 , 6
480 , 99.00 , 133.00 , 23.50 , 6
481 , 101.00 , 112.50 , 23.50 , 6
482 , 102.00 , 71.00 , 23.50 , 6
483 , 101.25 , 49.00 , 23.50 , 6
Going to Annealing Temperature
484 , 100.75 , 49.00 , 23.50 , 6
485 , 98.25 , 49.00 , 23.50 , 6
486 , 95.00 , 49.00 , 23.50 , 6
487 , 91.50 , 49.00 , 23.50 , 6
488 , 87.50 , 49.00 , 23.50 , 6
489 , 84.00 , 49.00 , 23.50 , 6
490 , 80.75 , 49.00 , 23.50 , 6
491 , 78.25 , 49.00 , 23.50 , 6
492 , 75.25 , 49.00 , 23.50 , 6
493 , 72.50 , 49.00 , 23.50 , 6
494 , 70.00 , 49.00 , 23.50 , 6
495 , 67.25 , 49.00 , 23.50 , 6
496 , 65.00 , 49.00 , 23.50 , 6
497 , 62.50 , 49.00 , 23.50 , 6
498 , 60.50 , 49.00 , 23.50 , 6
499 , 58.75 , 49.00 , 23.50 , 6
500 , 57.00 , 49.00 , 23.50 , 6
Annealing DNA Now
501 , 55.50 , 49.00 , 105.00 , 6
502 , 54.00 , 49.00 , 125.00 , 6
503 , 55.50 , 49.00 , 125.00 , 6
504 , 58.00 , 49.00 , 125.00 , 6
505 , 60.00 , 49.00 , 84.00 , 6
506 , 61.25 , 49.00 , 42.00 , 6
507 , 62.50 , 49.00 , 14.38 , 6
508 , 61.75 , 49.00 , 0.00 , 6
509 , 61.25 , 49.00 , 0.00 , 6
510 , 59.75 , 49.00 , 5.63 , 6
511 , 59.50 , 49.00 , 33.75 , 6
512 , 59.25 , 49.00 , 37.00 , 6
513 , 58.50 , 49.00 , 40.38 , 6
514 , 58.25 , 49.00 , 54.13 , 6
515 , 59.25 , 49.00 , 58.00 , 6
516 , 59.25 , 49.00 , 36.38 , 6
517 , 59.75 , 49.00 , 34.75 , 6
518 , 59.50 , 49.00 , 22.87 , 6
519 , 59.50 , 49.00 , 26.12 , 6
520 , 59.00 , 49.00 , 24.37 , 6
Going to Extension Temperature
521 , 58.75 , 250.00 , 24.37 , 6
522 , 61.00 , 250.00 , 24.37 , 6
523 , 64.50 , 250.00 , 24.37 , 6
524 , 68.50 , 250.00 , 24.37 , 6
525 , 71.75 , 250.00 , 24.37 , 6
526 , 74.50 , 192.63 , 24.37 , 6
Extending DNA Now
527 , 77.75 , 137.88 , 24.37 , 6
528 , 78.50 , 71.50 , 24.37 , 6
529 , 78.25 , 54.75 , 24.37 , 6
530 , 77.25 , 58.13 , 24.37 , 6
531 , 76.75 , 77.00 , 24.37 , 6
532 , 76.25 , 86.12 , 24.37 , 6
533 , 76.00 , 95.50 , 24.37 , 6
534 , 76.25 , 100.00 , 24.37 , 6
535 , 75.75 , 94.37 , 24.37 , 6
536 , 76.50 , 104.00 , 24.37 , 6
537 , 76.50 , 88.25 , 24.37 , 6
538 , 76.75 , 87.50 , 24.37 , 6
539 , 76.50 , 81.62 , 24.37 , 6
540 , 76.50 , 85.87 , 24.37 , 6
541 , 76.00 , 85.12 , 24.37 , 6
542 , 76.50 , 94.62 , 24.37 , 6
543 , 76.75 , 83.87 , 24.37 , 6
544 , 76.25 , 78.00 , 24.37 , 6
545 , 76.25 , 87.37 , 24.37 , 6
546 , 76.00 , 86.75 , 24.37 , 6
547 , 76.50 , 91.25 , 24.37 , 6
548 , 76.50 , 80.50 , 24.37 , 6
549 , 76.25 , 79.75 , 24.37 , 6
550 , 76.25 , 84.12 , 24.37 , 6
551 , 76.25 , 83.50 , 24.37 , 6
552 , 76.00 , 82.87 , 24.37 , 6
553 , 76.00 , 87.37 , 24.37 , 6
554 , 76.00 , 86.87 , 24.37 , 6
555 , 75.75 , 86.37 , 24.37 , 6
556 , 75.50 , 91.00 , 24.37 , 6
557 , 76.00 , 91.00 , 24.37 , 6
Going to Denaturing Temperature
558 , 76.25 , 250.00 , 24.37 , 7
559 , 79.75 , 250.00 , 24.37 , 7
560 , 85.75 , 250.00 , 24.37 , 7
561 , 90.25 , 250.00 , 24.37 , 7
562 , 95.75 , 250.00 , 24.37 , 7
563 , 100.50 , 193.13 , 24.37 , 7
Denaturing DNA Now
564 , 103.75 , 96.87 , 24.37 , 7
565 , 104.00 , 29.00 , 24.37 , 7
566 , 102.50 , 21.00 , 24.37 , 7
567 , 99.75 , 48.75 , 24.37 , 7
568 , 98.25 , 102.87 , 24.37 , 7
569 , 97.00 , 132.75 , 24.37 , 7
