Please wait for the temperature to reach 95
0 , 34.25 , 200.00 , 0.00 , 0
1 , 33.50 , 200.00 , 0.00 , 0
2 , 33.25 , 200.00 , 0.00 , 0
3 , 34.50 , 200.00 , 0.00 , 0
4 , 37.75 , 200.00 , 0.00 , 0
5 , 37.50 , 200.00 , 0.00 , 0
6 , 37.25 , 200.00 , 0.00 , 0
7 , 38.25 , 200.00 , 0.00 , 0
8 , 39.00 , 200.00 , 0.00 , 0
9 , 39.50 , 200.00 , 0.00 , 0
10 , 41.75 , 200.00 , 0.00 , 0
11 , 43.50 , 200.00 , 0.00 , 0
12 , 46.25 , 200.00 , 0.00 , 0
13 , 49.75 , 200.00 , 0.00 , 0
14 , 53.50 , 200.00 , 0.00 , 0
15 , 57.50 , 200.00 , 0.00 , 0
16 , 62.25 , 200.00 , 0.00 , 0
17 , 66.25 , 200.00 , 0.00 , 0
18 , 70.50 , 200.00 , 0.00 , 0
19 , 74.00 , 200.00 , 0.00 , 0
20 , 77.25 , 200.00 , 0.00 , 0
21 , 80.75 , 200.00 , 0.00 , 0
22 , 83.75 , 200.00 , 0.00 , 0
23 , 87.00 , 200.00 , 0.00 , 0
24 , 90.00 , 200.00 , 0.00 , 0
25 , 92.75 , 200.00 , 0.00 , 0
Temperature has reached 95, please wait 60s for the initial denaturing to complete
26 , 95.00 , 194.60 , 0.00 , 0
Initial Denaturing has completed, Amplification Loop will start now
Going to Denaturing Temperature
Denaturing DNA Now
27 , 97.50 , 178.25 , 0.00 , 1
Going to Annealing Temperature
28 , 100.00 , 178.25 , 0.00 , 1
29 , 98.75 , 178.25 , 0.00 , 1
30 , 95.75 , 178.25 , 0.00 , 1
31 , 91.00 , 178.25 , 0.00 , 1
32 , 87.25 , 178.25 , 0.00 , 1
33 , 83.25 , 178.25 , 0.00 , 1
34 , 79.00 , 178.25 , 0.00 , 1
35 , 75.25 , 178.25 , 0.00 , 1
36 , 72.00 , 178.25 , 0.00 , 1
37 , 68.50 , 178.25 , 0.00 , 1
38 , 65.75 , 178.25 , 0.00 , 1
39 , 63.50 , 178.25 , 0.00 , 1
40 , 61.00 , 178.25 , 0.00 , 1
41 , 58.25 , 178.25 , 0.00 , 1
42 , 56.50 , 178.25 , 0.00 , 1
43 , 54.50 , 178.25 , 0.00 , 1
44 , 52.75 , 178.25 , 0.00 , 1
45 , 51.25 , 178.25 , 0.00 , 1
46 , 49.00 , 178.25 , 0.00 , 1
Annealing DNA Now
47 , 48.00 , 178.25 , 93.00 , 1
48 , 46.75 , 178.25 , 100.00 , 1
49 , 47.50 , 178.25 , 100.00 , 1
50 , 48.75 , 178.25 , 100.00 , 1
51 , 51.00 , 178.25 , 94.60 , 1
52 , 52.75 , 178.25 , 78.25 , 1
53 , 54.50 , 178.25 , 65.05 , 1
54 , 56.00 , 178.25 , 51.50 , 1
55 , 55.75 , 178.25 , 39.40 , 1
56 , 56.00 , 178.25 , 39.60 , 1
Going to Extension Temperature
57 , 56.75 , 187.45 , 39.60 , 1
58 , 58.25 , 184.65 , 39.60 , 1
59 , 60.25 , 176.30 , 39.60 , 1
60 , 64.00 , 164.05 , 39.60 , 1
61 , 67.25 , 138.80 , 39.60 , 1
62 , 70.50 , 116.40 , 39.60 , 1
Extending DNA Now
63 , 72.50 , 93.35 , 39.60 , 1
64 , 73.75 , 78.65 , 39.60 , 1
65 , 75.00 , 68.95 , 39.60 , 1
66 , 75.25 , 59.00 , 39.60 , 1
67 , 74.75 , 56.00 , 39.60 , 1
68 , 74.75 , 58.35 , 39.60 , 1
69 , 74.50 , 57.20 , 39.60 , 1
70 , 73.75 , 57.85 , 39.60 , 1
71 , 74.25 , 62.15 , 39.60 , 1
72 , 74.25 , 57.60 , 39.60 , 1
73 , 73.50 , 56.55 , 39.60 , 1
74 , 73.75 , 60.90 , 39.60 , 1
75 , 73.75 , 58.20 , 39.60 , 1
76 , 73.00 , 57.25 , 39.60 , 1
77 , 73.25 , 61.70 , 39.60 , 1
78 , 73.00 , 59.10 , 39.60 , 1
79 , 73.25 , 60.05 , 39.60 , 1
80 , 73.75 , 57.45 , 39.60 , 1
81 , 73.00 , 53.00 , 39.60 , 1
82 , 73.50 , 57.45 , 39.60 , 1
83 , 73.25 , 57.45 , 39.60 , 1
Going to Denaturing Temperature
84 , 73.25 , 200.00 , 39.60 , 2
85 , 74.50 , 200.00 , 39.60 , 2
86 , 77.50 , 200.00 , 39.60 , 2
87 , 81.50 , 200.00 , 39.60 , 2
88 , 84.75 , 174.95 , 39.60 , 2
89 , 88.50 , 153.65 , 39.60 , 2
90 , 90.75 , 128.10 , 39.60 , 2
91 , 91.75 , 112.60 , 39.60 , 2
92 , 93.50 , 105.65 , 39.60 , 2
Denaturing DNA Now
93 , 93.50 , 93.10 , 39.60 , 2
Going to Annealing Temperature
94 , 94.25 , 93.10 , 39.60 , 2
95 , 93.25 , 93.10 , 39.60 , 2
96 , 89.75 , 93.10 , 39.60 , 2
97 , 85.25 , 93.10 , 39.60 , 2
98 , 81.75 , 93.10 , 39.60 , 2
99 , 78.00 , 93.10 , 39.60 , 2
100 , 74.50 , 93.10 , 39.60 , 2
101 , 70.75 , 93.10 , 39.60 , 2
102 , 68.25 , 93.10 , 39.60 , 2
103 , 65.00 , 93.10 , 39.60 , 2
104 , 62.75 , 93.10 , 39.60 , 2
105 , 60.00 , 93.10 , 39.60 , 2
106 , 58.00 , 93.10 , 39.60 , 2
107 , 55.75 , 93.10 , 39.60 , 2
108 , 53.50 , 93.10 , 39.60 , 2
109 , 51.75 , 93.10 , 39.60 , 2
110 , 50.25 , 93.10 , 39.60 , 2
111 , 49.25 , 93.10 , 39.60 , 2
Annealing DNA Now
112 , 47.25 , 93.10 , 91.25 , 2
113 , 46.00 , 93.10 , 100.00 , 2
114 , 46.75 , 93.10 , 100.00 , 2
115 , 49.00 , 93.10 , 100.00 , 2
116 , 51.00 , 93.10 , 92.80 , 2
117 , 52.75 , 93.10 , 78.20 , 2
118 , 54.00 , 93.10 , 65.00 , 2
119 , 54.75 , 93.10 , 55.05 , 2
120 , 55.50 , 93.10 , 48.45 , 2
121 , 55.75 , 93.10 , 41.70 , 2
Going to Extension Temperature
122 , 56.25 , 189.60 , 41.70 , 2
123 , 57.75 , 188.65 , 41.70 , 2
124 , 60.25 , 180.40 , 41.70 , 2
125 , 63.75 , 164.65 , 41.70 , 2
126 , 67.25 , 141.20 , 41.70 , 2
127 , 69.75 , 117.05 , 41.70 , 2
Extending DNA Now
128 , 71.75 , 99.40 , 41.70 , 2
129 , 73.00 , 84.85 , 41.70 , 2
130 , 73.50 , 75.30 , 41.70 , 2
131 , 73.75 , 70.90 , 41.70 , 2
132 , 74.00 , 68.20 , 41.70 , 2
133 , 73.75 , 65.45 , 41.70 , 2
134 , 74.25 , 66.25 , 41.70 , 2
135 , 73.75 , 61.70 , 41.70 , 2
136 , 73.75 , 64.25 , 41.70 , 2
137 , 74.00 , 63.30 , 41.70 , 2
138 , 73.50 , 60.55 , 41.70 , 2
139 , 74.00 , 63.15 , 41.70 , 2
140 , 73.25 , 58.65 , 41.70 , 2
141 , 73.50 , 63.05 , 41.70 , 2
142 , 73.00 , 60.40 , 41.70 , 2
143 , 72.75 , 63.10 , 41.70 , 2
144 , 73.00 , 64.10 , 41.70 , 2
145 , 72.75 , 61.55 , 41.70 , 2
146 , 72.75 , 62.55 , 41.70 , 2
147 , 72.00 , 61.80 , 41.70 , 2
148 , 72.50 , 61.80 , 41.70 , 2
Going to Denaturing Temperature
149 , 72.25 , 200.00 , 41.70 , 3
150 , 73.50 , 200.00 , 41.70 , 3
151 , 75.50 , 200.00 , 41.70 , 3
152 , 79.00 , 200.00 , 41.70 , 3
153 , 82.50 , 196.50 , 41.70 , 3
154 , 85.25 , 173.90 , 41.70 , 3
155 , 87.50 , 156.00 , 41.70 , 3
156 , 89.75 , 141.15 , 41.70 , 3
157 , 90.25 , 125.85 , 41.70 , 3
158 , 91.25 , 122.70 , 41.70 , 3
159 , 92.50 , 115.85 , 41.70 , 3
Denaturing DNA Now
160 , 93.00 , 107.00 , 41.70 , 3
Going to Annealing Temperature
161 , 93.50 , 107.00 , 41.70 , 3
162 , 92.00 , 107.00 , 41.70 , 3
163 , 89.50 , 107.00 , 41.70 , 3
164 , 85.25 , 107.00 , 41.70 , 3
165 , 81.75 , 107.00 , 41.70 , 3
166 , 77.75 , 107.00 , 41.70 , 3
167 , 74.25 , 107.00 , 41.70 , 3
168 , 71.00 , 107.00 , 41.70 , 3
169 , 67.50 , 107.00 , 41.70 , 3
170 , 65.25 , 107.00 , 41.70 , 3
171 , 62.75 , 107.00 , 41.70 , 3
172 , 60.25 , 107.00 , 41.70 , 3
173 , 57.75 , 107.00 , 41.70 , 3
174 , 55.75 , 107.00 , 41.70 , 3
175 , 54.00 , 107.00 , 41.70 , 3
176 , 52.25 , 107.00 , 41.70 , 3
177 , 50.25 , 107.00 , 41.70 , 3
178 , 49.00 , 107.00 , 41.70 , 3
Annealing DNA Now
179 , 47.75 , 107.00 , 93.00 , 3
180 , 46.50 , 107.00 , 100.00 , 3
181 , 47.00 , 107.00 , 100.00 , 3
182 , 48.75 , 107.00 , 100.00 , 3
183 , 49.50 , 107.00 , 94.60 , 3
184 , 52.00 , 107.00 , 89.05 , 3
185 , 52.75 , 107.00 , 70.75 , 3
186 , 54.75 , 107.00 , 64.55 , 3
187 , 55.25 , 107.00 , 49.20 , 3
188 , 55.50 , 107.00 , 44.25 , 3
Going to Extension Temperature
189 , 56.00 , 192.20 , 44.25 , 3
190 , 57.00 , 191.30 , 44.25 , 3
191 , 59.75 , 186.70 , 44.25 , 3
192 , 63.25 , 169.30 , 44.25 , 3
193 , 66.00 , 145.95 , 44.25 , 3
194 , 69.00 , 127.30 , 44.25 , 3
Extending DNA Now
195 , 71.00 , 106.30 , 44.25 , 3
196 , 72.50 , 91.90 , 44.25 , 3
197 , 73.50 , 80.70 , 44.25 , 3
198 , 73.75 , 72.80 , 44.25 , 3
199 , 74.25 , 70.10 , 44.25 , 3
200 , 74.25 , 65.55 , 44.25 , 3
201 , 74.00 , 64.50 , 44.25 , 3
202 , 74.25 , 65.25 , 44.25 , 3
203 , 73.50 , 62.45 , 44.25 , 3
204 , 74.00 , 66.80 , 44.25 , 3
205 , 73.50 , 62.30 , 44.25 , 3
206 , 74.00 , 64.90 , 44.25 , 3
207 , 73.75 , 60.40 , 44.25 , 3
208 , 73.75 , 61.20 , 44.25 , 3
209 , 73.50 , 60.25 , 44.25 , 3
210 , 73.25 , 61.10 , 44.25 , 3
211 , 73.75 , 62.00 , 44.25 , 3
212 , 73.50 , 57.55 , 44.25 , 3
213 , 73.50 , 58.40 , 44.25 , 3
214 , 73.25 , 57.50 , 44.25 , 3
215 , 73.25 , 57.50 , 44.25 , 3
Going to Denaturing Temperature
216 , 73.25 , 200.00 , 44.25 , 4
217 , 74.50 , 200.00 , 44.25 , 4
218 , 77.25 , 200.00 , 44.25 , 4
219 , 80.25 , 200.00 , 44.25 , 4
220 , 83.50 , 187.55 , 44.25 , 4
221 , 86.00 , 166.50 , 44.25 , 4
222 , 88.25 , 150.20 , 44.25 , 4
223 , 90.25 , 135.20 , 44.25 , 4
224 , 91.25 , 121.55 , 44.25 , 4
225 , 92.25 , 114.70 , 44.25 , 4
Denaturing DNA Now
226 , 93.75 , 107.65 , 44.25 , 4
Going to Annealing Temperature
227 , 93.25 , 107.65 , 44.25 , 4
228 , 92.25 , 107.65 , 44.25 , 4
229 , 89.75 , 107.65 , 44.25 , 4
230 , 85.00 , 107.65 , 44.25 , 4
231 , 82.00 , 107.65 , 44.25 , 4
232 , 78.00 , 107.65 , 44.25 , 4
233 , 74.00 , 107.65 , 44.25 , 4
234 , 71.25 , 107.65 , 44.25 , 4
235 , 68.00 , 107.65 , 44.25 , 4
236 , 65.25 , 107.65 , 44.25 , 4
237 , 62.75 , 107.65 , 44.25 , 4
238 , 60.50 , 107.65 , 44.25 , 4
239 , 58.25 , 107.65 , 44.25 , 4
240 , 56.00 , 107.65 , 44.25 , 4
241 , 54.25 , 107.65 , 44.25 , 4
242 , 52.50 , 107.65 , 44.25 , 4
243 , 51.00 , 107.65 , 44.25 , 4
244 , 48.75 , 107.65 , 44.25 , 4
Annealing DNA Now
245 , 47.50 , 107.65 , 94.75 , 4
246 , 47.00 , 107.65 , 100.00 , 4
247 , 47.75 , 107.65 , 100.00 , 4
248 , 49.00 , 107.65 , 100.00 , 4
249 , 50.75 , 107.65 , 92.80 , 4
250 , 52.25 , 107.65 , 80.00 , 4
251 , 53.50 , 107.65 , 68.65 , 4
252 , 53.75 , 107.65 , 58.80 , 4
253 , 55.00 , 107.65 , 55.90 , 4
254 , 55.25 , 107.65 , 45.75 , 4
Going to Extension Temperature
255 , 55.75 , 193.75 , 45.75 , 4
256 , 57.50 , 192.90 , 45.75 , 4
257 , 59.75 , 182.95 , 45.75 , 4
258 , 62.50 , 169.05 , 45.75 , 4
259 , 65.50 , 151.10 , 45.75 , 4
260 , 67.75 , 130.80 , 45.75 , 4
Extending DNA Now
261 , 70.00 , 115.30 , 45.75 , 4
262 , 71.00 , 99.35 , 45.75 , 4
263 , 71.75 , 91.95 , 45.75 , 4
264 , 72.75 , 86.15 , 45.75 , 4
265 , 73.00 , 78.40 , 45.75 , 4
266 , 73.25 , 75.85 , 45.75 , 4
267 , 72.75 , 73.25 , 45.75 , 4
268 , 72.25 , 76.00 , 45.75 , 4
269 , 73.00 , 78.85 , 45.75 , 4
270 , 73.00 , 72.80 , 45.75 , 4
271 , 72.75 , 72.00 , 45.75 , 4
272 , 72.25 , 73.00 , 45.75 , 4
273 , 73.00 , 75.85 , 45.75 , 4
274 , 73.25 , 69.80 , 45.75 , 4
275 , 72.75 , 67.20 , 45.75 , 4
276 , 72.25 , 69.95 , 45.75 , 4
277 , 72.50 , 72.80 , 45.75 , 4
278 , 72.75 , 70.35 , 45.75 , 4
279 , 72.75 , 67.85 , 45.75 , 4
280 , 73.00 , 67.10 , 45.75 , 4
281 , 73.00 , 67.10 , 45.75 , 4
Going to Denaturing Temperature
282 , 72.75 , 200.00 , 45.75 , 5
283 , 73.75 , 200.00 , 45.75 , 5
284 , 76.25 , 200.00 , 45.75 , 5
285 , 79.00 , 200.00 , 45.75 , 5
286 , 82.25 , 200.00 , 45.75 , 5
287 , 85.00 , 180.60 , 45.75 , 5
288 , 87.25 , 162.75 , 45.75 , 5
289 , 89.50 , 147.95 , 45.75 , 5
290 , 90.75 , 132.70 , 45.75 , 5
291 , 91.75 , 124.20 , 45.75 , 5
292 , 92.75 , 117.25 , 45.75 , 5
Denaturing DNA Now
293 , 93.00 , 110.10 , 45.75 , 5
Going to Annealing Temperature
294 , 93.00 , 110.10 , 45.75 , 5
295 , 92.00 , 110.10 , 45.75 , 5
296 , 89.25 , 110.10 , 45.75 , 5
297 , 85.00 , 110.10 , 45.75 , 5
298 , 81.25 , 110.10 , 45.75 , 5
299 , 77.25 , 110.10 , 45.75 , 5
300 , 74.00 , 110.10 , 45.75 , 5
301 , 70.75 , 110.10 , 45.75 , 5
302 , 67.75 , 110.10 , 45.75 , 5
303 , 64.00 , 110.10 , 45.75 , 5
304 , 62.50 , 110.10 , 45.75 , 5
305 , 60.00 , 110.10 , 45.75 , 5
306 , 57.50 , 110.10 , 45.75 , 5
307 , 55.50 , 110.10 , 45.75 , 5
308 , 53.75 , 110.10 , 45.75 , 5
309 , 52.00 , 110.10 , 45.75 , 5
310 , 50.00 , 110.10 , 45.75 , 5
Annealing DNA Now
311 , 48.50 , 110.10 , 86.00 , 5
312 , 48.00 , 110.10 , 96.40 , 5
313 , 48.25 , 110.10 , 99.90 , 5
314 , 49.75 , 110.10 , 98.10 , 5
315 , 51.00 , 110.10 , 87.25 , 5
316 , 52.75 , 110.10 , 77.90 , 5
317 , 53.25 , 110.10 , 64.70 , 5
318 , 54.25 , 110.10 , 60.15 , 5
319 , 55.00 , 110.10 , 51.90 , 5
320 , 54.75 , 110.10 , 45.25 , 5
Going to Extension Temperature
321 , 55.00 , 196.85 , 45.25 , 5
322 , 56.75 , 197.90 , 45.25 , 5
323 , 58.50 , 188.10 , 45.25 , 5
324 , 61.75 , 177.95 , 45.25 , 5
325 , 64.75 , 156.65 , 45.25 , 5
326 , 67.25 , 136.50 , 45.25 , 5
327 , 69.25 , 119.35 , 45.25 , 5
Extending DNA Now
328 , 70.00 , 105.30 , 45.25 , 5
329 , 71.75 , 99.85 , 45.25 , 5
330 , 72.25 , 87.05 , 45.25 , 5
331 , 72.75 , 82.90 , 45.25 , 5
332 , 72.50 , 78.65 , 45.25 , 5
333 , 73.00 , 79.70 , 45.25 , 5
334 , 73.00 , 75.40 , 45.25 , 5
335 , 72.75 , 74.60 , 45.25 , 5
336 , 73.00 , 75.60 , 45.25 , 5
337 , 72.25 , 73.05 , 45.25 , 5
338 , 72.50 , 77.65 , 45.25 , 5
339 , 72.75 , 75.20 , 45.25 , 5
340 , 72.75 , 72.70 , 45.25 , 5
341 , 72.75 , 71.95 , 45.25 , 5
342 , 72.75 , 71.20 , 45.25 , 5
343 , 72.50 , 70.45 , 45.25 , 5
344 , 72.25 , 71.50 , 45.25 , 5
345 , 72.00 , 72.60 , 45.25 , 5
346 , 72.25 , 73.75 , 45.25 , 5
347 , 72.00 , 71.35 , 45.25 , 5
348 , 71.50 , 71.35 , 45.25 , 5
Going to Denaturing Temperature
349 , 72.00 , 200.00 , 45.25 , 6
350 , 73.00 , 200.00 , 45.25 , 6
351 , 74.75 , 200.00 , 45.25 , 6
352 , 77.75 , 200.00 , 45.25 , 6
353 , 81.50 , 200.00 , 45.25 , 6
354 , 84.00 , 187.90 , 45.25 , 6
355 , 85.75 , 172.00 , 45.25 , 6
356 , 87.75 , 161.00 , 45.25 , 6
357 , 89.50 , 147.85 , 45.25 , 6
358 , 91.00 , 136.10 , 45.25 , 6
359 , 91.75 , 125.80 , 45.25 , 6
360 , 92.00 , 120.60 , 45.25 , 6
Denaturing DNA Now
361 , 92.75 , 118.85 , 45.25 , 6
Going to Annealing Temperature
362 , 93.00 , 118.85 , 45.25 , 6
363 , 92.00 , 118.85 , 45.25 , 6
364 , 88.75 , 118.85 , 45.25 , 6
365 , 85.50 , 118.85 , 45.25 , 6
366 , 81.25 , 118.85 , 45.25 , 6
367 , 77.75 , 118.85 , 45.25 , 6
368 , 74.25 , 118.85 , 45.25 , 6
369 , 71.00 , 118.85 , 45.25 , 6
370 , 67.50 , 118.85 , 45.25 , 6
371 , 65.25 , 118.85 , 45.25 , 6
372 , 62.50 , 118.85 , 45.25 , 6
373 , 60.25 , 118.85 , 45.25 , 6
374 , 57.50 , 118.85 , 45.25 , 6
375 , 55.25 , 118.85 , 45.25 , 6
376 , 54.00 , 118.85 , 45.25 , 6
377 , 52.25 , 118.85 , 45.25 , 6
378 , 50.50 , 118.85 , 45.25 , 6
379 , 48.75 , 118.85 , 45.25 , 6
Annealing DNA Now
380 , 47.75 , 118.85 , 94.75 , 6
381 , 46.50 , 118.85 , 100.00 , 6
382 , 46.75 , 118.85 , 100.00 , 6
383 , 48.75 , 118.85 , 100.00 , 6
384 , 49.75 , 118.85 , 94.60 , 6
385 , 51.25 , 118.85 , 87.25 , 6
386 , 52.50 , 118.85 , 76.10 , 6
387 , 53.75 , 118.85 , 66.45 , 6
388 , 54.00 , 118.85 , 56.55 , 6
389 , 54.75 , 118.85 , 53.60 , 6
Going to Extension Temperature
390 , 54.50 , 198.20 , 53.60 , 6
391 , 56.00 , 200.00 , 53.60 , 6
392 , 58.00 , 194.95 , 53.60 , 6
393 , 61.50 , 183.15 , 53.60 , 6
395 , 64.75 , 160.15 , 53.60 , 6
396 , 67.25 , 138.25 , 53.60 , 6
397 , 68.75 , 121.10 , 53.60 , 6
Extending DNA Now
398 , 71.00 , 110.65 , 53.60 , 6
399 , 71.50 , 94.50 , 53.60 , 6
400 , 72.25 , 90.50 , 53.60 , 6
401 , 72.75 , 84.60 , 53.60 , 6
402 , 73.25 , 80.35 , 53.60 , 6
403 , 73.25 , 76.00 , 53.60 , 6
404 , 73.25 , 75.15 , 53.60 , 6
405 , 73.25 , 74.30 , 53.60 , 6
406 , 73.00 , 73.45 , 53.60 , 6
407 , 72.75 , 74.40 , 53.60 , 6
408 , 72.75 , 75.40 , 53.60 , 6
409 , 72.50 , 74.65 , 53.60 , 6
410 , 72.50 , 75.70 , 53.60 , 6
411 , 72.50 , 75.00 , 53.60 , 6
412 , 72.25 , 74.30 , 53.60 , 6
413 , 72.25 , 75.40 , 53.60 , 6
414 , 72.50 , 74.75 , 53.60 , 6
415 , 72.25 , 72.30 , 53.60 , 6
416 , 72.75 , 73.40 , 53.60 , 6
417 , 72.25 , 69.15 , 53.60 , 6
418 , 72.75 , 69.15 , 53.60 , 6
Going to Denaturing Temperature
419 , 72.75 , 200.00 , 53.60 , 7
420 , 73.25 , 200.00 , 53.60 , 7
421 , 75.25 , 200.00 , 53.60 , 7
422 , 78.25 , 200.00 , 53.60 , 7
423 , 81.00 , 200.00 , 53.60 , 7
424 , 83.50 , 192.15 , 53.60 , 7
425 , 85.50 , 176.35 , 53.60 , 7
426 , 87.75 , 163.65 , 53.60 , 7
427 , 88.75 , 148.75 , 53.60 , 7
428 , 90.25 , 142.40 , 53.60 , 7
429 , 90.75 , 132.25 , 53.60 , 7
430 , 91.50 , 129.00 , 53.60 , 7
431 , 92.00 , 123.85 , 53.60 , 7
Denaturing DNA Now
432 , 92.25 , 120.35 , 53.60 , 7
Going to Annealing Temperature
433 , 93.00 , 120.35 , 53.60 , 7
434 , 92.00 , 120.35 , 53.60 , 7
435 , 88.50 , 120.35 , 53.60 , 7
436 , 85.00 , 120.35 , 53.60 , 7
437 , 81.25 , 120.35 , 53.60 , 7
438 , 77.25 , 120.35 , 53.60 , 7
439 , 73.75 , 120.35 , 53.60 , 7
440 , 70.75 , 120.35 , 53.60 , 7
441 , 67.50 , 120.35 , 53.60 , 7
442 , 64.50 , 120.35 , 53.60 , 7
443 , 62.50 , 120.35 , 53.60 , 7
444 , 59.75 , 120.35 , 53.60 , 7
445 , 57.00 , 120.35 , 53.60 , 7
446 , 55.50 , 120.35 , 53.60 , 7
447 , 53.50 , 120.35 , 53.60 , 7
448 , 52.25 , 120.35 , 53.60 , 7
449 , 50.75 , 120.35 , 53.60 , 7
450 , 48.75 , 120.35 , 53.60 , 7
Annealing DNA Now
451 , 47.75 , 120.35 , 94.75 , 7
452 , 46.50 , 120.35 , 100.00 , 7
453 , 47.00 , 120.35 , 100.00 , 7
454 , 48.50 , 120.35 , 100.00 , 7
455 , 49.50 , 120.35 , 96.40 , 7
456 , 51.25 , 120.35 , 89.10 , 7
457 , 52.50 , 120.35 , 76.20 , 7
458 , 53.25 , 120.35 , 66.55 , 7
459 , 54.25 , 120.35 , 60.25 , 7
460 , 54.75 , 120.35 , 52.00 , 7
Going to Extension Temperature
461 , 54.75 , 198.35 , 52.00 , 7
462 , 56.50 , 200.00 , 52.00 , 7
463 , 58.50 , 191.45 , 52.00 , 7
464 , 60.75 , 179.55 , 52.00 , 7
465 , 64.00 , 165.45 , 52.00 , 7
466 , 66.25 , 143.70 , 52.00 , 7
467 , 68.25 , 128.50 , 52.00 , 7
Extending DNA Now
468 , 70.00 , 114.65 , 52.00 , 7
469 , 70.75 , 102.20 , 52.00 , 7
470 , 71.50 , 96.60 , 52.00 , 7
471 , 72.00 , 90.85 , 52.00 , 7
472 , 72.25 , 86.75 , 52.00 , 7
473 , 72.75 , 84.35 , 52.00 , 7
474 , 72.50 , 80.10 , 52.00 , 7
475 , 72.25 , 81.15 , 52.00 , 7
476 , 72.50 , 82.25 , 52.00 , 7
477 , 72.75 , 79.80 , 52.00 , 7
478 , 73.00 , 77.30 , 52.00 , 7
479 , 73.25 , 74.75 , 52.00 , 7
480 , 72.75 , 72.15 , 52.00 , 7
481 , 73.00 , 74.90 , 52.00 , 7
482 , 73.25 , 72.35 , 52.00 , 7
483 , 73.00 , 69.75 , 52.00 , 7
484 , 73.25 , 70.70 , 52.00 , 7
485 , 73.25 , 68.10 , 52.00 , 7
486 , 72.75 , 67.25 , 52.00 , 7
487 , 72.25 , 70.00 , 52.00 , 7
488 , 72.25 , 70.00 , 52.00 , 7
Going to Denaturing Temperature
489 , 72.25 , 200.00 , 52.00 , 8
490 , 73.25 , 200.00 , 52.00 , 8
491 , 75.25 , 200.00 , 52.00 , 8
492 , 78.00 , 200.00 , 52.00 , 8
493 , 81.00 , 200.00 , 52.00 , 8
494 , 83.25 , 193.25 , 52.00 , 8
495 , 85.50 , 179.25 , 52.00 , 8
496 , 87.00 , 164.80 , 52.00 , 8
497 , 89.00 , 155.30 , 52.00 , 8
498 , 90.00 , 141.90 , 52.00 , 8
499 , 90.75 , 135.30 , 52.00 , 8
500 , 91.25 , 130.30 , 52.00 , 8
501 , 91.75 , 126.95 , 52.00 , 8
502 , 92.00 , 123.50 , 52.00 , 8
Denaturing DNA Now
503 , 92.50 , 121.75 , 52.00 , 8
Going to Annealing Temperature
504 , 92.25 , 121.75 , 52.00 , 8
505 , 91.00 , 121.75 , 52.00 , 8
506 , 88.00 , 121.75 , 52.00 , 8
507 , 84.50 , 121.75 , 52.00 , 8
508 , 80.50 , 121.75 , 52.00 , 8
509 , 77.00 , 121.75 , 52.00 , 8
510 , 73.75 , 121.75 , 52.00 , 8
511 , 70.50 , 121.75 , 52.00 , 8
512 , 66.75 , 121.75 , 52.00 , 8
513 , 64.25 , 121.75 , 52.00 , 8
514 , 62.00 , 121.75 , 52.00 , 8
515 , 59.75 , 121.75 , 52.00 , 8
516 , 57.25 , 121.75 , 52.00 , 8
517 , 55.75 , 121.75 , 52.00 , 8
518 , 53.75 , 121.75 , 52.00 , 8
519 , 51.50 , 121.75 , 52.00 , 8
520 , 50.25 , 121.75 , 52.00 , 8
521 , 48.25 , 121.75 , 52.00 , 8
Annealing DNA Now
522 , 46.50 , 121.75 , 98.25 , 8
523 , 46.50 , 121.75 , 100.00 , 8
524 , 47.00 , 121.75 , 100.00 , 8
525 , 48.25 , 121.75 , 100.00 , 8
526 , 49.75 , 121.75 , 98.20 , 8
527 , 51.00 , 121.75 , 87.35 , 8
528 , 52.00 , 121.75 , 78.00 , 8
529 , 52.75 , 121.75 , 70.20 , 8
530 , 53.75 , 121.75 , 64.00 , 8
531 , 54.50 , 121.75 , 55.85 , 8
Going to Extension Temperature
532 , 54.75 , 200.00 , 55.85 , 8
533 , 56.00 , 200.00 , 55.85 , 8
534 , 58.25 , 195.45 , 55.85 , 8
535 , 61.00 , 181.85 , 55.85 , 8
536 , 64.00 , 164.20 , 55.85 , 8
537 , 66.25 , 144.20 , 55.85 , 8
538 , 68.25 , 129.00 , 55.85 , 8
Extending DNA Now
539 , 69.75 , 115.15 , 55.85 , 8
540 , 71.50 , 104.50 , 55.85 , 8
541 , 72.50 , 91.75 , 55.85 , 8
542 , 73.00 , 84.05 , 55.85 , 8
543 , 73.25 , 79.75 , 55.85 , 8
544 , 73.25 , 77.15 , 55.85 , 8
545 , 73.25 , 76.30 , 55.85 , 8
546 , 73.00 , 75.45 , 55.85 , 8
547 , 73.25 , 76.40 , 55.85 , 8
548 , 73.00 , 73.80 , 55.85 , 8
549 , 72.75 , 74.75 , 55.85 , 8
550 , 72.25 , 75.75 , 55.85 , 8
551 , 73.00 , 78.60 , 55.85 , 8
552 , 72.75 , 72.55 , 55.85 , 8
553 , 73.00 , 73.55 , 55.85 , 8
554 , 72.50 , 71.00 , 55.85 , 8
555 , 72.00 , 73.80 , 55.85 , 8
