Please wait for the temperature to reach 95
0 , 25.76 , 90.00 , 0.00 , 0
1 , 25.51 , 90.00 , 0.00 , 0
2 , 25.25 , 90.00 , 0.00 , 0
3 , 25.25 , 90.00 , 0.00 , 0
4 , 28.82 , 90.00 , 0.00 , 0
5 , 32.91 , 90.00 , 0.00 , 0
6 , 41.58 , 90.00 , 0.00 , 0
7 , 47.45 , 90.00 , 0.00 , 0
8 , 51.79 , 90.00 , 0.00 , 0
9 , 54.59 , 90.00 , 0.00 , 0
10 , 59.44 , 90.00 , 0.00 , 0
11 , 63.27 , 90.00 , 0.00 , 0
12 , 66.84 , 90.00 , 0.00 , 0
13 , 70.67 , 90.00 , 0.00 , 0
14 , 74.24 , 90.00 , 0.00 , 0
15 , 77.30 , 90.00 , 0.00 , 0
16 , 80.11 , 90.00 , 0.00 , 0
17 , 82.66 , 90.00 , 0.00 , 0
18 , 85.21 , 90.00 , 0.00 , 0
19 , 87.25 , 90.00 , 0.00 , 0
20 , 89.81 , 90.00 , 0.00 , 0
21 , 91.85 , 90.00 , 0.00 , 0
22 , 93.38 , 90.00 , 0.00 , 0
23 , 94.91 , 90.00 , 0.00 , 0
24 , 96.95 , 90.00 , 0.00 , 0
Temperature has reached 95, please wait 60s for the initial denaturing to complete
25 , 97.97 , 68.55 , 0.00 , 0
26 , 98.23 , 55.38 , 0.00 , 0
27 , 97.20 , 49.60 , 0.00 , 0
28 , 96.18 , 57.60 , 0.00 , 0
29 , 95.16 , 66.62 , 0.00 , 0
30 , 95.67 , 76.66 , 0.00 , 0
31 , 96.44 , 70.89 , 0.00 , 0
32 , 96.44 , 61.79 , 0.00 , 0
33 , 96.18 , 60.35 , 0.00 , 0
34 , 95.67 , 61.72 , 0.00 , 0
35 , 95.67 , 66.15 , 0.00 , 0
36 , 95.93 , 65.47 , 0.00 , 0
37 , 95.93 , 61.99 , 0.00 , 0
38 , 95.93 , 61.06 , 0.00 , 0
39 , 95.93 , 60.13 , 0.00 , 0
40 , 95.67 , 59.21 , 0.00 , 0
41 , 94.91 , 61.08 , 0.00 , 0
42 , 95.42 , 68.83 , 0.00 , 0
43 , 95.67 , 63.31 , 0.00 , 0
44 , 95.93 , 60.08 , 0.00 , 0
45 , 95.93 , 56.60 , 0.00 , 0
46 , 95.67 , 55.67 , 0.00 , 0
47 , 95.16 , 57.55 , 0.00 , 0
48 , 94.65 , 62.49 , 0.00 , 0
49 , 94.65 , 67.94 , 0.00 , 0
50 , 94.91 , 68.28 , 0.00 , 0
51 , 95.93 , 65.82 , 0.00 , 0
52 , 96.18 , 54.69 , 0.00 , 0
53 , 95.16 , 50.95 , 0.00 , 0
54 , 94.91 , 60.99 , 0.00 , 0
55 , 94.65 , 63.64 , 0.00 , 0
56 , 94.65 , 66.54 , 0.00 , 0
57 , 95.16 , 66.88 , 0.00 , 0
58 , 95.93 , 61.62 , 0.00 , 0
59 , 95.42 , 53.03 , 0.00 , 0
60 , 95.16 , 57.72 , 0.00 , 0
61 , 95.16 , 60.10 , 0.00 , 0
62 , 95.42 , 59.94 , 0.00 , 0
63 , 95.16 , 56.97 , 0.00 , 0
64 , 94.91 , 59.36 , 0.00 , 0
65 , 94.91 , 62.00 , 0.00 , 0
66 , 95.16 , 62.09 , 0.00 , 0
67 , 95.16 , 59.38 , 0.00 , 0
68 , 95.16 , 59.21 , 0.00 , 0
69 , 95.42 , 59.05 , 0.00 , 0
70 , 94.91 , 56.08 , 0.00 , 0
71 , 94.40 , 61.27 , 0.00 , 0
72 , 94.65 , 66.98 , 0.00 , 0
73 , 95.42 , 64.77 , 0.00 , 0
74 , 95.42 , 56.70 , 0.00 , 0
75 , 95.42 , 56.28 , 0.00 , 0
76 , 94.65 , 55.86 , 0.00 , 0
77 , 94.91 , 63.86 , 0.00 , 0
78 , 95.16 , 61.40 , 0.00 , 0
79 , 94.91 , 58.69 , 0.00 , 0
80 , 94.91 , 61.33 , 0.00 , 0
81 , 95.42 , 61.42 , 0.00 , 0
82 , 95.42 , 55.90 , 0.00 , 0
83 , 94.91 , 55.48 , 0.00 , 0
84 , 94.40 , 60.67 , 0.00 , 0
85 , 94.65 , 66.38 , 0.00 , 0
Initial Denaturing has completed, Amplification Loop will start now
Going to Denaturing Temperature
86 , 94.65 , 64.17 , 0.00 , 1
87 , 95.67 , 64.52 , 0.00 , 1
Denaturing DNA Now
88 , 95.93 , 53.64 , 0.00 , 1
89 , 95.67 , 50.16 , 0.00 , 1
90 , 94.91 , 52.04 , 0.00 , 1
91 , 94.40 , 59.78 , 0.00 , 1
92 , 94.14 , 65.49 , 0.00 , 1
93 , 94.65 , 68.90 , 0.00 , 1
94 , 94.65 , 64.14 , 0.00 , 1
95 , 95.67 , 64.49 , 0.00 , 1
96 , 95.42 , 53.61 , 0.00 , 1
97 , 95.42 , 55.74 , 0.00 , 1
98 , 95.16 , 55.32 , 0.00 , 1
99 , 94.40 , 57.71 , 0.00 , 1
100 , 94.65 , 65.96 , 0.00 , 1
101 , 95.16 , 63.76 , 0.00 , 1
102 , 95.16 , 58.49 , 0.00 , 1
Going to Extention Temperature
103 , 95.16 , 58.49 , 0.00 , 1
104 , 92.10 , 58.49 , 0.00 , 1
105 , 89.04 , 58.49 , 0.00 , 1
106 , 86.23 , 58.49 , 0.00 , 1
107 , 83.43 , 58.49 , 0.00 , 1
108 , 81.64 , 58.49 , 0.00 , 1
109 , 79.34 , 58.49 , 0.00 , 1
110 , 77.30 , 58.49 , 0.00 , 1
111 , 75.52 , 58.49 , 0.00 , 1
112 , 73.73 , 58.49 , 0.00 , 1
113 , 72.46 , 58.49 , 0.00 , 1
114 , 70.41 , 58.49 , 0.00 , 1
115 , 69.14 , 58.49 , 0.00 , 1
116 , 67.35 , 58.49 , 0.00 , 1
117 , 65.82 , 58.49 , 0.00 , 1
118 , 64.29 , 58.49 , 0.00 , 1
119 , 63.01 , 58.49 , 0.00 , 1
120 , 61.74 , 58.49 , 0.00 , 1
121 , 60.46 , 58.49 , 0.00 , 1
122 , 59.19 , 58.49 , 0.00 , 1
Extending DNA Now
123 , 57.91 , 58.49 , 45.00 , 1
124 , 57.15 , 58.49 , 45.00 , 1
125 , 60.21 , 58.49 , 45.00 , 1
126 , 61.74 , 58.49 , 42.71 , 1
127 , 63.27 , 58.49 , 25.66 , 1
128 , 63.01 , 58.49 , 7.08 , 1
129 , 61.99 , 58.49 , 6.62 , 1
130 , 59.70 , 58.49 , 14.83 , 1
131 , 59.19 , 58.49 , 38.10 , 1
132 , 60.72 , 58.49 , 44.01 , 1
133 , 62.50 , 58.49 , 27.98 , 1
134 , 62.50 , 58.49 , 7.62 , 1
135 , 61.23 , 58.49 , 5.11 , 1
136 , 59.44 , 58.49 , 16.64 , 1
137 , 58.93 , 58.49 , 35.06 , 1
138 , 59.70 , 58.49 , 41.23 , 1
139 , 61.23 , 58.49 , 33.88 , 1
140 , 61.99 , 58.49 , 17.34 , 1
141 , 60.72 , 58.49 , 7.69 , 1
142 , 60.21 , 58.49 , 19.73 , 1
143 , 58.93 , 58.49 , 24.63 , 1
144 , -8.43 , 58.49 , 38.45 , 1
145 , 59.95 , 58.49 , 45.00 , 1
146 , 61.48 , 58.49 , 45.00 , 1
147 , 63.27 , 58.49 , 28.68 , 1
148 , 63.01 , 58.49 , 7.55 , 1
149 , 61.48 , 58.49 , 7.08 , 1
150 , 59.70 , 58.49 , 20.91 , 1
151 , 59.44 , 58.49 , 39.07 , 1
152 , 60.72 , 58.49 , 42.18 , 1
153 , 62.25 , 58.49 , 42.18 , 1
