Please wait for the temperature to reach 95
0 , 21.17 , 200.00 , 0.00 , 0
1 , 21.23 , 200.00 , 0.00 , 0
2 , 21.19 , 200.00 , 0.00 , 0
3 , 21.19 , 200.00 , 0.00 , 0
4 , 21.23 , 200.00 , 0.00 , 0
5 , 21.11 , 200.00 , 0.00 , 0
6 , 21.11 , 200.00 , 0.00 , 0
7 , 21.11 , 200.00 , 0.00 , 0
8 , 33.63 , 200.00 , 0.00 , 0
9 , 39.01 , 200.00 , 0.00 , 0
10 , 43.07 , 200.00 , 0.00 , 0
11 , 47.15 , 200.00 , 0.00 , 0
12 , 51.25 , 200.00 , 0.00 , 0
13 , 54.75 , 200.00 , 0.00 , 0
14 , 57.95 , 200.00 , 0.00 , 0
15 , 61.21 , 200.00 , 0.00 , 0
16 , 64.05 , 200.00 , 0.00 , 0
17 , 66.75 , 200.00 , 0.00 , 0
18 , 69.37 , 200.00 , 0.00 , 0
19 , 72.05 , 200.00 , 0.00 , 0
20 , 74.43 , 200.00 , 0.00 , 0
21 , 76.67 , 200.00 , 0.00 , 0
22 , 78.83 , 200.00 , 0.00 , 0
23 , 81.07 , 200.00 , 0.00 , 0
24 , 83.01 , 200.00 , 0.00 , 0
25 , 84.85 , 200.00 , 0.00 , 0
26 , 86.75 , 200.00 , 0.00 , 0
27 , 88.45 , 200.00 , 0.00 , 0
28 , 90.05 , 200.00 , 0.00 , 0
29 , 91.71 , 200.00 , 0.00 , 0
30 , 93.13 , 200.00 , 0.00 , 0
31 , 94.49 , 200.00 , 0.00 , 0
32 , 95.79 , 200.00 , 0.00 , 0
Temperature has reached 95, please wait 60s for the initial denaturing to complete
33 , 97.07 , 182.22 , 0.00 , 0
34 , 98.49 , 151.45 , 0.00 , 0
35 , 98.23 , 114.33 , 0.00 , 0
36 , 96.93 , 111.45 , 0.00 , 0
37 , 96.53 , 132.63 , 0.00 , 0
38 , 97.41 , 136.80 , 0.00 , 0
39 , 97.87 , 113.17 , 0.00 , 0
40 , 97.13 , 96.80 , 0.00 , 0
41 , 95.95 , 106.27 , 0.00 , 0
42 , 95.95 , 127.50 , 0.00 , 0
43 , 96.83 , 125.12 , 0.00 , 0
44 , 96.97 , 102.95 , 0.00 , 0
45 , 95.87 , 95.22 , 0.00 , 0
46 , 95.21 , 115.05 , 0.00 , 0
47 , 95.81 , 127.73 , 0.00 , 0
48 , 96.45 , 113.70 , 0.00 , 0
49 , 96.01 , 97.27 , 0.00 , 0
50 , 95.09 , 103.55 , 0.00 , 0
51 , 95.11 , 121.73 , 0.00 , 0
52 , 95.85 , 121.05 , 0.00 , 0
53 , 95.99 , 104.12 , 0.00 , 0
54 , 95.21 , 98.85 , 0.00 , 0
55 , 94.65 , 113.93 , 0.00 , 0
56 , 95.21 , 126.00 , 0.00 , 0
57 , 95.89 , 114.28 , 0.00 , 0
58 , 95.51 , 98.45 , 0.00 , 0
59 , 94.49 , 104.77 , 0.00 , 0
60 , 94.41 , 126.45 , 0.00 , 0
61 , 95.43 , 129.52 , 0.00 , 0
62 , 95.91 , 108.05 , 0.00 , 0
63 , 95.09 , 96.18 , 0.00 , 0
64 , 94.19 , 112.35 , 0.00 , 0
65 , 94.73 , 132.38 , 0.00 , 0
66 , 95.77 , 122.25 , 0.00 , 0
67 , 95.55 , 99.53 , 0.00 , 0
68 , 94.49 , 102.55 , 0.00 , 0
69 , 94.25 , 125.03 , 0.00 , 0
70 , 95.25 , 131.70 , 0.00 , 0
71 , 95.87 , 111.08 , 0.00 , 0
72 , 95.07 , 96.50 , 0.00 , 0
73 , 93.93 , 112.32 , 0.00 , 0
74 , 94.41 , 137.80 , 0.00 , 0
75 , 95.75 , 129.68 , 0.00 , 0
76 , 95.83 , 101.00 , 0.00 , 0
77 , 94.55 , 97.33 , 0.00 , 0
78 , 93.87 , 124.05 , 0.00 , 0
79 , 95.01 , 140.48 , 0.00 , 0
80 , 96.09 , 117.65 , 0.00 , 0
81 , 95.47 , 93.33 , 0.00 , 0
82 , 94.03 , 104.55 , 0.00 , 0
83 , 94.07 , 135.78 , 0.00 , 0
84 , 95.65 , 137.30 , 0.00 , 0
85 , 96.15 , 104.08 , 0.00 , 0
86 , 94.87 , 91.20 , 0.00 , 0
87 , 93.89 , 117.13 , 0.00 , 0
88 , 94.83 , 139.50 , 0.00 , 0
89 , 95.97 , 121.13 , 0.00 , 0
90 , 95.55 , 95.90 , 0.00 , 0
91 , 94.05 , 102.93 , 0.00 , 0
92 , 94.01 , 135.30 , 0.00 , 0
93 , 95.53 , 138.58 , 0.00 , 0
Initial Denaturing has completed, Amplification Loop will start now
Going to Denaturing Temperature
Denaturing DNA Now
94 , 96.31 , 106.85 , 0.00 , 1
95 , 94.71 , 87.98 , 0.00 , 1
96 , 93.43 , 120.70 , 0.00 , 1
97 , 94.85 , 150.23 , 0.00 , 1
98 , 96.33 , 122.20 , 0.00 , 1
99 , 95.51 , 89.28 , 0.00 , 1
100 , 93.53 , 104.40 , 0.00 , 1
101 , 93.71 , 147.68 , 0.00 , 1
102 , 96.03 , 147.30 , 0.00 , 1
103 , 96.77 , 98.33 , 0.00 , 1
104 , 94.41 , 79.10 , 0.00 , 1
105 , 92.67 , 127.78 , 0.00 , 1
106 , 94.59 , 168.40 , 0.00 , 1
107 , 97.11 , 131.03 , 0.00 , 1
108 , 96.19 , 75.35 , 0.00 , 1
Going to Extention Temperature
109 , 92.99 , 75.35 , 0.00 , 1
110 , 85.73 , 75.35 , 0.00 , 1
111 , 82.37 , 75.35 , 0.00 , 1
112 , 79.25 , 75.35 , 0.00 , 1
113 , 76.37 , 75.35 , 0.00 , 1
114 , 73.95 , 75.35 , 0.00 , 1
115 , 71.65 , 75.35 , 0.00 , 1
116 , 69.29 , 75.35 , 0.00 , 1
117 , 67.09 , 75.35 , 0.00 , 1
118 , 64.89 , 75.35 , 0.00 , 1
119 , 63.17 , 75.35 , 0.00 , 1
120 , 61.35 , 75.35 , 0.00 , 1
121 , 59.57 , 75.35 , 0.00 , 1
Extending DNA Now
122 , 57.99 , 75.35 , 70.00 , 1
123 , 58.77 , 75.35 , 70.00 , 1
124 , 62.99 , 75.35 , 70.00 , 1
125 , 64.15 , 75.35 , 2.73 , 1
126 , 58.73 , 75.35 , 0.00 , 1
127 , 56.87 , 75.35 , 70.00 , 1
128 , 59.95 , 75.35 , 70.00 , 1
129 , 61.97 , 75.35 , 64.27 , 1
130 , 62.25 , 75.35 , 18.95 , 1
131 , 58.59 , 75.35 , 7.72 , 1
132 , 56.59 , 75.35 , 70.00 , 1
133 , 61.35 , 75.35 , 70.00 , 1
134 , 62.29 , 75.35 , 34.40 , 1
135 , 59.63 , 75.35 , 9.87 , 1
136 , 56.87 , 75.35 , 64.00 , 1
137 , 60.71 , 75.35 , 70.00 , 1
138 , 61.93 , 75.35 , 48.45 , 1
139 , 60.61 , 75.35 , 19.23 , 1
140 , 57.87 , 75.35 , 44.10 , 1
141 , 59.37 , 75.35 , 70.00 , 1
142 , 61.81 , 75.35 , 70.00 , 1
143 , 62.67 , 75.35 , 22.48 , 1
144 , 58.67 , 75.35 , 0.00 , 1
145 , 55.91 , 75.35 , 70.00 , 1
146 , 59.17 , 75.35 , 70.00 , 1
147 , 60.85 , 75.35 , 70.00 , 1
148 , 61.79 , 75.35 , 48.50 , 1
149 , 60.47 , 75.35 , 25.22 , 1
150 , 58.29 , 75.35 , 50.45 , 1
151 , 59.73 , 75.35 , 70.00 , 1
152 , 61.61 , 75.35 , 70.00 , 1
Going to Denaturing Temperature
153 , 62.25 , 200.00 , 70.00 , 2
154 , 70.61 , 200.00 , 70.00 , 2
155 , 73.35 , 200.00 , 70.00 , 2
156 , 75.63 , 200.00 , 70.00 , 2
157 , 77.57 , 200.00 , 70.00 , 2
158 , 79.27 , 200.00 , 70.00 , 2
159 , 81.03 , 200.00 , 70.00 , 2
160 , 82.55 , 200.00 , 70.00 , 2
161 , 84.11 , 200.00 , 70.00 , 2
162 , 85.53 , 200.00 , 70.00 , 2
163 , 86.75 , 200.00 , 70.00 , 2
164 , 87.83 , 200.00 , 70.00 , 2
165 , 88.95 , 200.00 , 70.00 , 2
166 , 90.05 , 200.00 , 70.00 , 2
167 , 91.01 , 200.00 , 70.00 , 2
168 , 92.01 , 200.00 , 70.00 , 2
169 , 92.89 , 200.00 , 70.00 , 2
170 , 93.81 , 200.00 , 70.00 , 2
171 , 94.57 , 200.00 , 70.00 , 2
172 , 95.25 , 200.00 , 70.00 , 2
Denaturing DNA Now
173 , 96.01 , 194.38 , 70.00 , 2
174 , 96.55 , 176.65 , 70.00 , 2
175 , 96.53 , 161.98 , 70.00 , 2
176 , 96.19 , 158.55 , 70.00 , 2
177 , 96.17 , 162.37 , 70.00 , 2
178 , 96.57 , 159.85 , 70.00 , 2
179 , 96.57 , 147.92 , 70.00 , 2
180 , 96.15 , 144.00 , 70.00 , 2
181 , 95.87 , 149.53 , 70.00 , 2
182 , 96.13 , 152.95 , 70.00 , 2
183 , 96.25 , 144.92 , 70.00 , 2
184 , 96.07 , 139.40 , 70.00 , 2
185 , 95.69 , 140.32 , 70.00 , 2
186 , 95.59 , 146.20 , 70.00 , 2
187 , 95.89 , 146.73 , 70.00 , 2
Going to Extention Temperature
188 , 95.87 , 146.73 , 70.00 , 2
189 , 85.83 , 146.73 , 70.00 , 2
190 , 81.77 , 146.73 , 70.00 , 2
191 , 78.47 , 146.73 , 70.00 , 2
192 , 75.25 , 146.73 , 70.00 , 2
193 , 72.87 , 146.73 , 70.00 , 2
194 , 70.35 , 146.73 , 70.00 , 2
195 , 68.23 , 146.73 , 70.00 , 2
196 , 66.07 , 146.73 , 70.00 , 2
197 , 63.61 , 146.73 , 70.00 , 2
198 , 61.67 , 146.73 , 70.00 , 2
199 , 59.97 , 146.73 , 70.00 , 2
Extending DNA Now
200 , 58.27 , 146.73 , 70.00 , 2
201 , 59.55 , 146.73 , 70.00 , 2
202 , 63.51 , 146.73 , 70.00 , 2
203 , 64.29 , 146.73 , 0.00 , 2
204 , 58.73 , 146.73 , 0.00 , 2
205 , 57.09 , 146.73 , 70.00 , 2
206 , 59.73 , 146.73 , 70.00 , 2
207 , 61.67 , 146.73 , 67.02 , 2
208 , 62.19 , 146.73 , 24.05 , 2
209 , 58.73 , 146.73 , 8.17 , 2
210 , 56.35 , 146.73 , 70.00 , 2
211 , 61.13 , 146.73 , 70.00 , 2
212 , 62.13 , 146.73 , 38.85 , 2
213 , 59.77 , 146.73 , 13.52 , 2
214 , 56.95 , 146.73 , 61.30 , 2
215 , 60.49 , 146.73 , 70.00 , 2
216 , 61.53 , 146.73 , 53.30 , 2
217 , 60.55 , 146.73 , 28.67 , 2
218 , 58.21 , 146.73 , 46.90 , 2
219 , 59.45 , 146.73 , 70.00 , 2
220 , 61.57 , 146.73 , 70.00 , 2
221 , 61.97 , 146.73 , 28.42 , 2
222 , 58.47 , 146.73 , 15.50 , 2
223 , 56.37 , 146.73 , 70.00 , 2
224 , 60.55 , 146.73 , 70.00 , 2
225 , 61.39 , 146.73 , 55.43 , 2
226 , 60.57 , 146.73 , 35.15 , 2
227 , 58.73 , 146.73 , 50.12 , 2
228 , 59.65 , 146.73 , 70.00 , 2
229 , 61.45 , 146.73 , 70.00 , 2
230 , 61.85 , 146.73 , 70.00 , 2
Going to Denaturing Temperature
231 , 62.19 , 200.00 , 70.00 , 3
232 , 70.67 , 200.00 , 70.00 , 3
233 , 73.11 , 200.00 , 70.00 , 3
234 , 75.07 , 200.00 , 70.00 , 3
235 , 76.63 , 200.00 , 70.00 , 3
236 , 78.15 , 200.00 , 70.00 , 3
237 , 79.67 , 200.00 , 70.00 , 3
238 , 80.87 , 200.00 , 70.00 , 3
239 , 82.15 , 200.00 , 70.00 , 3
240 , 83.39 , 200.00 , 70.00 , 3
241 , 84.49 , 200.00 , 70.00 , 3
242 , 85.51 , 200.00 , 70.00 , 3
243 , 86.37 , 200.00 , 70.00 , 3
244 , 87.37 , 200.00 , 70.00 , 3
245 , 88.17 , 200.00 , 70.00 , 3
246 , 88.99 , 200.00 , 70.00 , 3
247 , 89.71 , 200.00 , 70.00 , 3
248 , 90.53 , 200.00 , 70.00 , 3
249 , 91.17 , 200.00 , 70.00 , 3
250 , 91.71 , 200.00 , 70.00 , 3
251 , 92.37 , 200.00 , 70.00 , 3
252 , 92.87 , 200.00 , 70.00 , 3
253 , 93.39 , 200.00 , 70.00 , 3
254 , 93.85 , 200.00 , 70.00 , 3
255 , 94.39 , 200.00 , 70.00 , 3
256 , 94.77 , 200.00 , 70.00 , 3
257 , 95.17 , 200.00 , 70.00 , 3
Denaturing DNA Now
258 , 95.47 , 196.18 , 70.00 , 3
259 , 95.81 , 189.00 , 70.00 , 3
260 , 95.47 , 180.18 , 70.00 , 3
261 , 95.71 , 185.80 , 70.00 , 3
262 , 95.93 , 179.23 , 70.00 , 3
263 , 96.03 , 172.50 , 70.00 , 3
264 , 95.87 , 167.93 , 70.00 , 3
265 , 95.69 , 168.95 , 70.00 , 3
266 , 95.81 , 170.83 , 70.00 , 3
267 , 96.01 , 166.40 , 70.00 , 3
268 , 95.81 , 159.87 , 70.00 , 3
269 , 95.47 , 161.85 , 70.00 , 3
270 , 95.33 , 167.48 , 70.00 , 3
271 , 95.59 , 169.45 , 70.00 , 3
272 , 95.71 , 162.78 , 70.00 , 3
Going to Extention Temperature
273 , 95.35 , 162.78 , 70.00 , 3
274 , 84.45 , 162.78 , 70.00 , 3
275 , 80.03 , 162.78 , 70.00 , 3
276 , 77.15 , 162.78 , 70.00 , 3
277 , 73.89 , 162.78 , 70.00 , 3
278 , 71.63 , 162.78 , 70.00 , 3
279 , 69.05 , 162.78 , 70.00 , 3
280 , 66.71 , 162.78 , 70.00 , 3
281 , 64.67 , 162.78 , 70.00 , 3
282 , 62.57 , 162.78 , 70.00 , 3
283 , 60.85 , 162.78 , 70.00 , 3
284 , 59.03 , 162.78 , 70.00 , 3
Extending DNA Now
285 , 57.41 , 162.78 , 70.00 , 3
286 , 58.65 , 162.78 , 70.00 , 3
287 , 62.87 , 162.78 , 70.00 , 3
288 , 63.67 , 162.78 , 5.43 , 3
289 , 58.03 , 162.78 , 0.00 , 3
290 , 55.91 , 162.78 , 70.00 , 3
291 , 59.09 , 162.78 , 70.00 , 3
292 , 61.11 , 162.78 , 70.00 , 3
294 , 61.69 , 162.78 , 45.03 , 3
295 , 59.81 , 162.78 , 29.20 , 3
296 , 57.91 , 162.78 , 67.28 , 3
297 , 60.87 , 162.78 , 70.00 , 3
298 , 61.85 , 162.78 , 49.13 , 3
299 , 60.27 , 162.78 , 24.90 , 3
300 , 57.31 , 162.78 , 55.83 , 3
301 , 59.49 , 162.78 , 70.00 , 3
302 , 61.15 , 162.78 , 70.00 , 3
303 , 61.51 , 162.78 , 43.35 , 3
304 , 59.49 , 162.78 , 32.37 , 3
305 , 57.87 , 162.78 , 70.00 , 3
306 , 60.75 , 162.78 , 70.00 , 3
307 , 61.37 , 162.78 , 52.30 , 3
308 , 60.05 , 162.78 , 36.48 , 3
309 , 58.31 , 162.78 , 62.75 , 3
310 , 60.25 , 162.78 , 70.00 , 3
311 , 61.21 , 162.78 , 62.35 , 3
312 , 60.75 , 162.78 , 40.13 , 3
313 , 58.79 , 162.78 , 47.45 , 3
314 , 58.91 , 162.78 , 70.00 , 3
315 , 60.81 , 162.78 , 70.00 , 3
