3.991926e+002,6.027628e+001
4.011211e+002,5.985551e+001
4.030496e+002,6.102348e+001
4.049780e+002,6.085709e+001
4.069065e+002,6.011733e+001
4.088350e+002,6.050449e+001
4.107634e+002,6.070557e+001
4.126919e+002,6.072933e+001
4.146204e+002,6.084580e+001
4.165488e+002,6.090274e+001
4.184773e+002,6.105075e+001
4.204058e+002,6.104824e+001
4.223342e+002,6.118991e+001
4.242627e+002,6.126677e+001
4.261912e+002,6.131094e+001
4.281196e+002,6.136296e+001
4.300481e+002,6.157154e+001
4.319766e+002,6.151112e+001
4.339050e+002,6.168165e+001
4.358335e+002,6.192096e+001
4.377620e+002,6.204944e+001
4.396904e+002,6.217916e+001
4.416189e+002,6.229361e+001
4.435474e+002,6.217001e+001
4.454758e+002,6.218359e+001
4.474043e+002,6.199586e+001
4.493328e+002,6.208606e+001
4.512612e+002,6.206131e+001
4.531897e+002,6.205914e+001
4.551182e+002,6.243116e+001
4.570466e+002,6.246257e+001
4.589751e+002,6.231979e+001
4.609036e+002,6.249638e+001
4.628320e+002,6.243577e+001
4.647605e+002,6.234446e+001
4.666890e+002,6.239516e+001
4.686174e+002,6.259206e+001
4.705459e+002,6.249340e+001
4.724744e+002,6.243941e+001
4.744028e+002,6.262704e+001
4.763313e+002,6.265738e+001
4.782598e+002,6.274084e+001
4.801882e+002,6.282301e+001
4.821167e+002,6.288033e+001
4.840452e+002,6.291297e+001
4.859736e+002,6.290332e+001
4.879021e+002,6.301064e+001
4.898306e+002,6.300593e+001
4.917590e+002,6.319377e+001
4.936875e+002,6.318867e+001
4.956160e+002,6.308269e+001
4.975444e+002,6.296464e+001
4.994729e+002,6.298471e+001
5.014014e+002,6.312635e+001
5.033298e+002,6.321186e+001
5.052583e+002,6.309674e+001
5.071868e+002,6.314203e+001
5.091152e+002,6.303836e+001
5.110437e+002,6.309674e+001
5.129722e+002,6.316210e+001
5.149006e+002,6.312992e+001
5.168291e+002,6.298935e+001
5.187576e+002,6.304644e+001
5.206860e+002,6.313726e+001
5.226145e+002,6.319961e+001
5.245430e+002,6.313577e+001
5.264714e+002,6.322735e+001
5.283999e+002,6.334144e+001
5.303284e+002,6.343905e+001
5.322568e+002,6.355309e+001
5.341853e+002,6.374357e+001
5.361138e+002,6.362281e+001
5.380422e+002,6.356121e+001
5.399707e+002,6.362505e+001
5.418992e+002,6.366673e+001
5.438276e+002,6.371606e+001
5.457561e+002,6.376903e+001
5.476846e+002,6.378584e+001
5.496130e+002,6.384206e+001
5.515415e+002,6.384376e+001
5.534700e+002,6.400054e+001
5.553984e+002,6.405125e+001
5.573269e+002,6.418584e+001
5.592554e+002,6.422218e+001
5.611838e+002,6.417902e+001
5.631123e+002,6.420012e+001
5.650408e+002,6.428327e+001
5.669692e+002,6.423431e+001
5.688977e+002,6.436200e+001
5.708262e+002,6.448555e+001
5.727546e+002,6.453608e+001
5.746831e+002,6.452001e+001
5.766116e+002,6.452680e+001
5.785400e+002,6.471304e+001
5.804685e+002,6.483973e+001
5.823970e+002,6.482784e+001
5.843254e+002,6.493751e+001
5.862539e+002,6.509109e+001
5.881824e+002,6.501158e+001
5.901108e+002,6.502771e+001
5.920393e+002,6.519940e+001
5.939678e+002,6.522260e+001
5.958962e+002,6.522720e+001
5.978247e+002,6.527136e+001
5.997532e+002,6.533674e+001
6.016816e+002,6.545017e+001
6.036101e+002,6.554382e+001
6.055386e+002,6.557634e+001
6.074670e+002,6.564655e+001
6.093955e+002,6.566210e+001
6.113240e+002,6.567758e+001
6.132524e+002,6.576324e+001
6.151809e+002,6.586122e+001
6.171094e+002,6.594218e+001
6.190378e+002,6.610781e+001
6.209663e+002,6.623099e+001
6.228948e+002,6.637986e+001
6.248232e+002,6.643872e+001
6.267517e+002,6.652536e+001
6.286802e+002,6.656702e+001
6.306086e+002,6.663720e+001
6.325371e+002,6.670138e+001
6.344656e+002,6.673317e+001
6.363940e+002,6.680006e+001
6.383225e+002,6.690074e+001
6.402510e+002,6.704932e+001
6.421794e+002,6.732089e+001
6.441079e+002,6.754522e+001
6.460364e+002,6.771864e+001
6.479648e+002,6.784029e+001
6.498933e+002,6.806916e+001
6.518218e+002,6.831911e+001
6.537502e+002,6.846457e+001
6.556787e+002,6.855408e+001
6.576072e+002,6.864817e+001
6.595356e+002,6.872324e+001
6.614641e+002,6.883341e+001
6.633926e+002,6.902458e+001
6.653210e+002,6.911254e+001
6.672495e+002,6.917101e+001
6.691780e+002,6.923495e+001
6.711064e+002,6.929985e+001
6.730349e+002,6.937509e+001
6.749634e+002,6.946391e+001
6.768918e+002,6.954658e+001
6.788203e+002,6.964924e+001
6.807488e+002,6.970869e+001
6.826772e+002,6.975725e+001
6.846057e+002,6.986098e+001
6.865342e+002,6.993746e+001
6.884626e+002,7.002409e+001
6.903911e+002,7.010165e+001
6.923196e+002,7.018565e+001
6.942480e+002,7.028727e+001
6.961765e+002,7.035548e+001
6.981050e+002,7.036233e+001
7.000334e+002,7.042910e+001
7.019619e+002,7.050884e+001
7.038904e+002,7.054768e+001
7.058188e+002,7.059156e+001
7.077473e+002,7.065157e+001
7.096758e+002,7.069192e+001
7.116042e+002,7.076797e+001
7.135327e+002,7.080752e+001
7.154612e+002,7.083801e+001
7.173896e+002,7.084731e+001
7.193181e+002,7.085075e+001
7.212466e+002,7.091557e+001
7.231750e+002,7.100060e+001
7.251035e+002,7.099213e+001
7.270320e+002,7.098470e+001
7.289604e+002,7.099741e+001
7.308889e+002,7.101772e+001
7.328174e+002,7.100803e+001
7.347458e+002,7.096777e+001
7.366743e+002,7.092228e+001
7.386028e+002,7.087566e+001
7.405313e+002,7.079940e+001
7.424597e+002,7.069830e+001
7.443882e+002,7.061913e+001
7.463167e+002,7.058109e+001
7.482451e+002,7.049280e+001
7.501736e+002,7.038681e+001
7.521021e+002,7.033450e+001
7.540305e+002,7.027643e+001
7.559590e+002,7.017933e+001
7.578875e+002,7.013896e+001
7.598159e+002,7.010490e+001
7.617444e+002,7.011897e+001
7.636729e+002,7.012003e+001
7.656013e+002,7.012853e+001
7.675298e+002,7.020470e+001
7.694583e+002,7.033694e+001
7.713867e+002,7.048794e+001
7.733152e+002,7.059164e+001
7.752437e+002,7.068832e+001
7.771721e+002,7.080434e+001
7.791006e+002,7.090802e+001
7.810291e+002,7.099603e+001
7.829575e+002,7.108009e+001
7.848860e+002,7.115649e+001
7.868145e+002,7.122395e+001
7.887429e+002,7.130250e+001
7.906714e+002,7.132692e+001
7.925999e+002,7.136629e+001
7.945283e+002,7.144039e+001
7.964568e+002,7.153766e+001
7.983853e+002,7.160983e+001
8.003137e+002,7.165923e+001
8.022422e+002,7.173044e+001
8.041707e+002,7.183099e+001
8.060991e+002,7.189187e+001
8.080276e+002,7.200347e+001
8.099561e+002,7.209659e+001
8.118845e+002,7.218581e+001
8.138130e+002,7.229779e+001
8.157415e+002,7.241547e+001
8.176699e+002,7.250311e+001
8.195984e+002,7.257710e+001
8.215269e+002,7.265831e+001
8.234553e+002,7.272567e+001
8.253838e+002,7.278343e+001
8.273123e+002,7.282253e+001
8.292407e+002,7.284885e+001
8.311692e+002,7.290835e+001
8.330977e+002,7.296106e+001
8.350261e+002,7.300533e+001
8.369546e+002,7.305605e+001
8.388831e+002,7.309920e+001
8.408115e+002,7.312850e+001
8.427400e+002,7.315964e+001
8.446685e+002,7.322146e+001
8.465969e+002,7.329542e+001
8.485254e+002,7.335119e+001
8.504539e+002,7.342016e+001
8.523823e+002,7.346155e+001
8.543108e+002,7.347662e+001
8.562393e+002,7.350185e+001
8.581677e+002,7.352856e+001
8.600962e+002,7.353652e+001
8.620247e+002,7.359265e+001
8.639531e+002,7.357121e+001
8.658816e+002,7.352818e+001
8.678101e+002,7.353547e+001
8.697385e+002,7.355473e+001
8.716670e+002,7.352188e+001
8.735955e+002,7.347248e+001
8.755239e+002,7.343800e+001
8.774524e+002,7.339136e+001
8.793809e+002,7.335815e+001
8.813093e+002,7.337615e+001
8.832378e+002,7.335601e+001
8.851663e+002,7.333355e+001
8.870947e+002,7.333952e+001
8.890232e+002,7.334641e+001
8.909517e+002,7.336768e+001
8.928801e+002,7.341618e+001
8.948085e+002,7.348354e+001
8.967370e+002,7.355648e+001
8.986655e+002,7.360786e+001
9.005939e+002,7.366978e+001
9.025224e+002,7.373072e+001
9.044509e+002,7.380468e+001
9.063793e+002,7.382542e+001
9.083078e+002,7.382329e+001
9.102363e+002,7.386211e+001
9.121647e+002,7.390457e+001
9.140932e+002,7.392667e+001
9.160217e+002,7.390468e+001
9.179501e+002,7.386391e+001
9.198786e+002,7.383447e+001
9.218071e+002,7.382052e+001
9.237355e+002,7.379272e+001
9.256640e+002,7.373759e+001
9.275925e+002,7.368988e+001
9.295209e+002,7.365634e+001
9.314494e+002,7.359473e+001
9.333779e+002,7.351595e+001
9.353063e+002,7.345683e+001
9.372348e+002,7.342743e+001
9.391633e+002,7.339384e+001
9.410917e+002,7.335945e+001
9.430202e+002,7.335651e+001
9.449487e+002,7.335704e+001
9.468771e+002,7.334373e+001
9.488056e+002,7.332840e+001
9.507341e+002,7.331351e+001
9.526625e+002,7.333012e+001
9.545910e+002,7.335206e+001
9.565195e+002,7.333988e+001
9.584479e+002,7.331651e+001
9.603764e+002,7.329501e+001
9.623049e+002,7.326785e+001
9.642333e+002,7.321536e+001
9.661618e+002,7.317847e+001
9.680903e+002,7.312653e+001
9.700187e+002,7.305473e+001
9.719472e+002,7.296988e+001
9.738757e+002,7.291180e+001
9.758041e+002,7.285693e+001
9.777326e+002,7.278873e+001
9.796611e+002,7.273181e+001
9.815895e+002,7.268964e+001
9.835180e+002,7.266362e+001
9.854465e+002,7.261975e+001
9.873749e+002,7.255669e+001
9.893034e+002,7.251397e+001
9.912319e+002,7.246492e+001
9.931603e+002,7.240404e+001
9.950888e+002,7.231791e+001
9.970173e+002,7.221806e+001
9.989457e+002,7.210900e+001
1.000874e+003,7.200330e+001
1.002803e+003,7.190121e+001
1.004731e+003,7.180166e+001
1.006660e+003,7.166441e+001
1.008588e+003,7.149712e+001
1.010517e+003,7.133901e+001
1.012445e+003,7.118044e+001
1.014373e+003,7.103162e+001
1.016302e+003,7.090074e+001
1.018230e+003,7.072910e+001
1.020159e+003,7.057308e+001
1.022087e+003,7.043639e+001
1.024016e+003,7.030647e+001
1.025944e+003,7.019398e+001
1.027873e+003,7.011926e+001
1.029801e+003,7.002958e+001
1.031730e+003,6.993430e+001
1.033658e+003,6.982592e+001
1.035587e+003,6.973690e+001
1.037515e+003,6.964909e+001
1.039444e+003,6.953595e+001
1.041372e+003,6.942826e+001
1.043301e+003,6.933516e+001
1.045229e+003,6.922031e+001
1.047157e+003,6.911584e+001
1.049086e+003,6.904018e+001
1.051014e+003,6.897840e+001
1.052943e+003,6.891973e+001
1.054871e+003,6.887179e+001
1.056800e+003,6.887258e+001
1.058728e+003,6.888465e+001
1.060657e+003,6.889813e+001
1.062585e+003,6.895151e+001
1.064514e+003,6.904031e+001
1.066442e+003,6.917182e+001
1.068371e+003,6.934631e+001
1.070299e+003,6.952180e+001
1.072228e+003,6.969080e+001
1.074156e+003,6.986879e+001
1.076084e+003,7.007701e+001
1.078013e+003,7.033941e+001
1.079941e+003,7.059287e+001
1.081870e+003,7.085875e+001
1.083798e+003,7.113599e+001
1.085727e+003,7.136119e+001
1.087655e+003,7.153336e+001
1.089584e+003,7.168513e+001
1.091512e+003,7.179160e+001
1.093441e+003,7.184797e+001
1.095369e+003,7.187368e+001
1.097298e+003,7.188454e+001
1.099226e+003,7.190083e+001
1.101155e+003,7.189929e+001
1.103083e+003,7.188443e+001
1.105011e+003,7.188104e+001
1.106940e+003,7.189322e+001
1.108868e+003,7.189256e+001
1.110797e+003,7.189227e+001
1.112725e+003,7.189793e+001
1.114654e+003,7.189034e+001
1.116582e+003,7.188341e+001
1.118511e+003,7.185215e+001
1.120439e+003,7.180103e+001
1.122368e+003,7.174348e+001
1.124296e+003,7.168394e+001
1.126225e+003,7.162425e+001
1.128153e+003,7.154084e+001
1.130082e+003,7.144810e+001
1.132010e+003,7.137097e+001
1.133938e+003,7.126086e+001
1.135867e+003,7.113970e+001
1.137795e+003,7.103167e+001
1.139724e+003,7.092182e+001
1.141652e+003,7.079311e+001
1.143581e+003,7.065386e+001
1.145509e+003,7.052718e+001
1.147438e+003,7.041100e+001
1.149366e+003,7.028344e+001
1.151295e+003,7.015122e+001
1.153223e+003,6.999496e+001
1.155152e+003,6.984800e+001
1.157080e+003,6.970790e+001
1.159009e+003,6.955760e+001
1.160937e+003,6.940338e+001
1.162865e+003,6.924992e+001
1.164794e+003,6.909428e+001
1.166722e+003,6.893909e+001
1.168651e+003,6.880124e+001
1.170579e+003,6.866252e+001
1.172508e+003,6.852360e+001
1.174436e+003,6.841508e+001
1.176365e+003,6.832026e+001
1.178293e+003,6.824156e+001
1.180222e+003,6.819977e+001
1.182150e+003,6.817337e+001
1.184079e+003,6.816746e+001
1.186007e+003,6.819336e+001
1.187936e+003,6.825916e+001
1.189864e+003,6.834145e+001
1.191792e+003,6.843274e+001
1.193721e+003,6.854282e+001
1.195649e+003,6.867722e+001
1.197578e+003,6.880606e+001
1.199506e+003,6.894324e+001
1.201435e+003,6.908918e+001
1.203363e+003,6.921938e+001
1.205292e+003,6.932825e+001
1.207220e+003,6.942480e+001
1.209149e+003,6.952086e+001
1.211077e+003,6.959868e+001
1.213006e+003,6.965233e+001
1.214934e+003,6.970432e+001
1.216863e+003,6.975414e+001
1.218791e+003,6.978142e+001
1.220719e+003,6.981047e+001
1.222648e+003,6.984765e+001
1.224576e+003,6.987776e+001
1.226505e+003,6.991276e+001
1.228433e+003,6.996405e+001
1.230362e+003,7.002190e+001
1.232290e+003,7.006825e+001
1.234219e+003,7.011582e+001
1.236147e+003,7.016781e+001
1.238076e+003,7.022633e+001
1.240004e+003,7.028452e+001
1.241933e+003,7.033633e+001
1.243861e+003,7.038772e+001
1.245790e+003,7.045000e+001
1.247718e+003,7.051579e+001
1.249646e+003,7.056862e+001
1.251575e+003,7.061909e+001
1.253503e+003,7.067230e+001
1.255432e+003,7.071875e+001
1.257360e+003,7.075449e+001
1.259289e+003,7.078880e+001
1.261217e+003,7.081361e+001
1.263146e+003,7.083639e+001
1.265074e+003,7.085092e+001
1.267003e+003,7.087416e+001
1.268931e+003,7.090229e+001
1.270860e+003,7.092844e+001
1.272788e+003,7.094383e+001
1.274717e+003,7.094923e+001
1.276645e+003,7.097002e+001
1.278573e+003,7.099457e+001
1.280502e+003,7.101245e+001
1.282430e+003,7.105006e+001
1.284359e+003,7.108667e+001
1.286287e+003,7.110731e+001
1.288216e+003,7.112878e+001
1.290144e+003,7.113596e+001
1.292073e+003,7.113573e+001
1.294001e+003,7.114596e+001
1.295930e+003,7.114310e+001
1.297858e+003,7.113669e+001
1.299787e+003,7.112971e+001
1.301715e+003,7.111221e+001
1.303644e+003,7.109930e+001
1.305572e+003,7.106747e+001
1.307500e+003,7.102591e+001
1.309429e+003,7.097839e+001
1.311357e+003,7.092354e+001
1.313286e+003,7.087389e+001
1.315214e+003,7.081946e+001
1.317143e+003,7.075272e+001
1.319071e+003,7.067976e+001
1.321000e+003,7.060273e+001
1.322928e+003,7.053172e+001
1.324857e+003,7.046554e+001
1.326785e+003,7.039228e+001
1.328714e+003,7.031014e+001
1.330642e+003,7.024727e+001
1.332571e+003,7.016106e+001
1.334499e+003,7.008448e+001
1.336427e+003,7.002274e+001
1.338356e+003,6.995332e+001
1.340284e+003,6.989677e+001
1.342213e+003,6.984835e+001
1.344141e+003,6.979623e+001
1.346070e+003,6.974757e+001
1.347998e+003,6.970355e+001
1.349927e+003,6.967768e+001
1.351855e+003,6.967563e+001
1.353784e+003,6.968252e+001
1.355712e+003,6.969559e+001
1.357641e+003,6.971607e+001
1.359569e+003,6.974986e+001
1.361498e+003,6.980350e+001
1.363426e+003,6.987215e+001
1.365354e+003,6.994246e+001
1.367283e+003,7.000544e+001
1.369211e+003,7.007768e+001
1.371140e+003,7.014585e+001
1.373068e+003,7.020937e+001
1.374997e+003,7.025183e+001
1.376925e+003,7.026690e+001
1.378854e+003,7.027888e+001
1.380782e+003,7.028637e+001
1.382711e+003,7.029072e+001
1.384639e+003,7.029318e+001
1.386568e+003,7.028934e+001
1.388496e+003,7.028609e+001
1.390424e+003,7.028417e+001
1.392353e+003,7.028371e+001
1.394281e+003,7.028115e+001
1.396210e+003,7.026990e+001
1.398138e+003,7.027808e+001
1.400067e+003,7.030743e+001
1.401995e+003,7.033274e+001
1.403924e+003,7.038258e+001
1.405852e+003,7.045550e+001
1.407781e+003,7.053233e+001
1.409709e+003,7.062677e+001
1.411638e+003,7.074261e+001
1.413566e+003,7.085861e+001
1.415495e+003,7.099477e+001
1.417423e+003,7.114442e+001
1.419351e+003,7.129315e+001
1.421280e+003,7.144191e+001
1.423208e+003,7.159583e+001
1.425137e+003,7.174223e+001
1.427065e+003,7.188815e+001
1.428994e+003,7.203430e+001
1.430922e+003,7.216672e+001
1.432851e+003,7.228316e+001
1.434779e+003,7.240890e+001
1.436708e+003,7.255973e+001
1.438636e+003,7.271748e+001
1.440565e+003,7.288148e+001
1.442493e+003,7.305607e+001
1.444422e+003,7.323892e+001
1.446350e+003,7.343849e+001
1.448278e+003,7.365070e+001
1.450207e+003,7.385564e+001
1.452135e+003,7.406226e+001
1.454064e+003,7.428555e+001
1.455992e+003,7.450677e+001
1.457921e+003,7.473419e+001
1.459849e+003,7.495784e+001
1.461778e+003,7.517142e+001
1.463706e+003,7.538108e+001
1.465635e+003,7.562722e+001
1.467563e+003,7.587740e+001
1.469492e+003,7.612650e+001
1.471420e+003,7.638505e+001
1.473349e+003,7.663005e+001
1.475277e+003,7.685668e+001
1.477205e+003,7.707687e+001
1.479134e+003,7.725822e+001
1.481062e+003,7.741965e+001
1.482991e+003,7.755977e+001
1.484919e+003,7.766090e+001
1.486848e+003,7.771976e+001
1.488776e+003,7.774183e+001
1.490705e+003,7.772512e+001
1.492633e+003,7.768108e+001
1.494562e+003,7.760713e+001
1.496490e+003,7.749664e+001
1.498419e+003,7.733787e+001
1.500347e+003,7.716455e+001
1.502276e+003,7.699144e+001
1.504204e+003,7.681376e+001
1.506132e+003,7.659053e+001
1.508061e+003,7.633666e+001
1.509989e+003,7.607423e+001
1.511918e+003,7.582093e+001
1.513846e+003,7.556339e+001
1.515775e+003,7.530144e+001
1.517703e+003,7.504056e+001
1.519632e+003,7.476183e+001
1.521560e+003,7.449100e+001
1.523489e+003,7.424096e+001
1.525417e+003,7.396736e+001
1.527346e+003,7.368829e+001
1.529274e+003,7.343491e+001
1.531203e+003,7.318315e+001
1.533131e+003,7.292377e+001
1.535059e+003,7.266924e+001
1.536988e+003,7.243942e+001
1.538916e+003,7.221274e+001
1.540845e+003,7.197810e+001
1.542773e+003,7.174265e+001
1.544702e+003,7.151877e+001
1.546630e+003,7.129815e+001
1.548559e+003,7.110894e+001
1.550487e+003,7.096490e+001
1.552416e+003,7.082659e+001
1.554344e+003,7.070222e+001
1.556273e+003,7.061848e+001
1.558201e+003,7.057008e+001
1.560130e+003,7.054871e+001
1.562058e+003,7.051711e+001
1.563986e+003,7.054420e+001
1.565915e+003,7.060818e+001
1.567843e+003,7.069312e+001
1.569772e+003,7.082720e+001
1.571700e+003,7.096820e+001
1.573629e+003,7.111351e+001
1.575557e+003,7.128923e+001
1.577486e+003,7.148379e+001
1.579414e+003,7.166440e+001
1.581343e+003,7.185088e+001
1.583271e+003,7.204479e+001
1.585200e+003,7.224555e+001
1.587128e+003,7.244888e+001
1.589057e+003,7.265813e+001
1.590985e+003,7.285426e+001
1.592913e+003,7.305667e+001
1.594842e+003,7.326695e+001
1.596770e+003,7.346033e+001
1.598699e+003,7.364546e+001
1.600627e+003,7.382248e+001
1.602556e+003,7.399361e+001
1.604484e+003,7.417597e+001
1.606413e+003,7.435218e+001
1.608341e+003,7.453127e+001
1.610270e+003,7.469494e+001
1.612198e+003,7.485069e+001
1.614127e+003,7.499734e+001
1.616055e+003,7.514011e+001
1.617984e+003,7.527054e+001
1.619912e+003,7.537650e+001
1.621840e+003,7.547570e+001
1.623769e+003,7.559597e+001
1.625697e+003,7.570368e+001
1.627626e+003,7.579283e+001
1.629554e+003,7.586547e+001
1.631483e+003,7.592739e+001
1.633411e+003,7.599232e+001
1.635340e+003,7.604729e+001
1.637268e+003,7.606747e+001
1.639197e+003,7.607661e+001
1.641125e+003,7.611572e+001
1.643054e+003,7.616115e+001
1.644982e+003,7.619081e+001
1.646911e+003,7.622656e+001
1.648839e+003,7.625351e+001
1.650767e+003,7.629713e+001
1.652696e+003,7.632498e+001
1.654624e+003,7.636332e+001
1.656553e+003,7.639835e+001
1.658481e+003,7.645299e+001
1.660410e+003,7.650533e+001
1.662338e+003,7.657894e+001
1.664267e+003,7.665524e+001
1.666195e+003,7.672835e+001
1.668124e+003,7.682800e+001
1.670052e+003,7.694592e+001
1.671981e+003,7.705255e+001
1.673909e+003,7.711736e+001
1.675838e+003,7.718237e+001
1.677766e+003,7.725948e+001
1.679694e+003,7.733713e+001
1.681623e+003,7.739984e+001
1.683551e+003,7.745069e+001
1.685480e+003,7.746350e+001
1.687408e+003,7.745255e+001
1.689337e+003,7.745672e+001
1.691265e+003,7.744703e+001
1.693194e+003,7.744097e+001
1.695122e+003,7.744264e+001
1.697051e+003,7.746632e+001
1.698979e+003,7.749709e+001
1.700908e+003,7.757656e+001
1.702836e+003,7.767272e+001
1.704765e+003,7.781722e+001
1.706693e+003,7.801712e+001
1.708621e+003,7.825594e+001
1.710550e+003,7.856416e+001
1.712478e+003,7.894312e+001
1.714407e+003,7.936304e+001
1.716335e+003,7.983810e+001
1.718264e+003,8.039597e+001
1.720192e+003,8.097136e+001
1.722121e+003,8.157798e+001
1.724049e+003,8.222417e+001
1.725978e+003,8.285409e+001
1.727906e+003,8.349021e+001
1.729835e+003,8.414208e+001
1.731763e+003,8.478120e+001
1.733692e+003,8.535926e+001
1.735620e+003,8.592071e+001
1.737548e+003,8.642902e+001
1.739477e+003,8.690398e+001
1.741405e+003,8.732374e+001
1.743334e+003,8.772173e+001
1.745262e+003,8.806319e+001
1.747191e+003,8.836040e+001
1.749119e+003,8.860020e+001
1.751048e+003,8.877679e+001
1.752976e+003,8.892802e+001
1.754905e+003,8.907516e+001
1.756833e+003,8.917728e+001
1.758762e+003,8.925412e+001
1.760690e+003,8.929969e+001
1.762619e+003,8.935658e+001
1.764547e+003,8.939552e+001
1.766475e+003,8.947118e+001
1.768404e+003,8.956956e+001
1.770332e+003,8.967283e+001
1.772261e+003,8.977206e+001
1.774189e+003,8.989173e+001
1.776118e+003,9.001035e+001
1.778046e+003,9.012401e+001
1.779975e+003,9.024299e+001
1.781903e+003,9.037160e+001
1.783832e+003,9.047369e+001
1.785760e+003,9.060970e+001
1.787689e+003,9.071548e+001
1.789617e+003,9.080040e+001
1.791546e+003,9.088785e+001
1.793474e+003,9.095833e+001
1.795402e+003,9.100984e+001
1.797331e+003,9.107944e+001
1.799259e+003,9.112744e+001
1.801188e+003,9.118522e+001
1.803116e+003,9.120845e+001
1.805045e+003,9.122014e+001
1.806973e+003,9.123231e+001
1.808902e+003,9.123842e+001
1.810830e+003,9.124461e+001
1.812759e+003,9.128078e+001
1.814687e+003,9.132365e+001
1.816616e+003,9.134907e+001
1.818544e+003,9.124970e+001
1.820473e+003,9.118663e+001
1.822401e+003,9.115182e+001
1.824329e+003,9.113383e+001
1.826258e+003,9.113116e+001
1.828186e+003,9.114132e+001
1.830115e+003,9.114752e+001
1.832043e+003,9.113333e+001
1.833972e+003,9.111364e+001
1.835900e+003,9.108529e+001
1.837829e+003,9.105566e+001
1.839757e+003,9.106135e+001
1.841686e+003,9.105484e+001
1.843614e+003,9.104259e+001
1.845543e+003,9.100678e+001
1.847471e+003,9.099709e+001
1.849400e+003,9.101110e+001
1.851328e+003,9.100699e+001
1.853256e+003,9.101180e+001
1.855185e+003,9.097020e+001
1.857113e+003,9.089160e+001
1.859042e+003,9.088434e+001
1.860970e+003,9.083714e+001
1.862899e+003,9.084741e+001
1.864827e+003,9.088553e+001
1.866756e+003,9.090670e+001
1.868684e+003,9.087441e+001
1.870613e+003,9.087936e+001
1.872541e+003,9.084737e+001
1.874470e+003,9.081561e+001
1.876398e+003,9.082802e+001
1.878327e+003,9.082980e+001
1.880255e+003,9.078427e+001
1.882183e+003,9.078870e+001
1.884112e+003,9.076719e+001
1.886040e+003,9.074677e+001
1.887969e+003,9.070878e+001
1.889897e+003,9.074235e+001
1.891826e+003,9.075024e+001
1.893754e+003,9.076233e+001
1.895683e+003,9.074820e+001
1.897611e+003,9.068834e+001
1.899540e+003,9.068650e+001
1.901468e+003,9.072646e+001
1.903397e+003,9.067593e+001
1.905325e+003,9.066037e+001
1.907254e+003,9.068309e+001
1.909182e+003,9.073906e+001
1.911110e+003,9.078573e+001
1.913039e+003,9.079794e+001
1.914967e+003,9.076202e+001
1.916896e+003,9.075909e+001
1.918824e+003,9.072330e+001
1.920753e+003,9.076372e+001
1.922681e+003,9.079405e+001
1.924610e+003,9.081253e+001
1.926538e+003,9.085832e+001
1.928467e+003,9.091744e+001
1.930395e+003,9.098310e+001
1.932324e+003,9.100732e+001
1.934252e+003,9.097491e+001
1.936181e+003,9.096006e+001
1.938109e+003,9.097766e+001
1.940037e+003,9.107748e+001
1.941966e+003,9.111457e+001
1.943894e+003,9.114459e+001
1.945823e+003,9.111558e+001
1.947751e+003,9.117899e+001
1.949680e+003,9.130158e+001
1.951608e+003,9.136022e+001
1.953537e+003,9.119102e+001
1.955465e+003,9.123381e+001
1.957394e+003,9.162891e+001
1.959322e+003,9.186565e+001
1.961251e+003,9.178728e+001
1.963179e+003,9.193591e+001
1.965108e+003,9.182074e+001
1.967036e+003,9.158635e+001
1.968964e+003,9.159662e+001
1.970893e+003,9.177267e+001
1.972821e+003,9.177238e+001
1.974750e+003,9.180503e+001
1.976678e+003,9.188364e+001
1.978607e+003,9.135504e+001
1.980535e+003,9.091409e+001
1.982464e+003,9.094831e+001
1.984392e+003,9.096170e+001
1.986321e+003,9.110580e+001
1.988249e+003,9.102757e+001
1.990178e+003,9.102382e+001
1.992106e+003,9.106976e+001
1.994035e+003,9.117927e+001
1.995963e+003,9.129744e+001
1.997891e+003,9.131405e+001
1.999820e+003,9.116706e+001
2.001748e+003,9.129247e+001
2.003677e+003,9.169915e+001
2.005605e+003,9.190599e+001
2.007534e+003,9.165984e+001
2.009462e+003,9.148434e+001
2.011391e+003,9.130983e+001
2.013319e+003,9.150739e+001
2.015248e+003,9.170101e+001
2.017176e+003,9.153898e+001
2.019105e+003,9.153445e+001
2.021033e+003,9.180716e+001
2.022962e+003,9.177980e+001
2.024890e+003,9.178431e+001
2.026818e+003,9.164044e+001
2.028747e+003,9.147901e+001
2.030675e+003,9.157742e+001
2.032604e+003,9.168458e+001
2.034532e+003,9.140728e+001
2.036461e+003,9.123454e+001
2.038389e+003,9.111068e+001
2.040318e+003,9.104163e+001
2.042246e+003,9.097144e+001
2.044175e+003,9.090995e+001
2.046103e+003,9.080621e+001
2.048032e+003,9.057102e+001
2.049960e+003,9.010941e+001
2.051889e+003,9.036217e+001
2.053817e+003,9.067632e+001
2.055746e+003,9.062258e+001
2.057674e+003,9.055723e+001
2.059603e+003,9.047950e+001
2.061531e+003,9.051289e+001
2.063459e+003,9.059155e+001
2.065388e+003,9.057719e+001
2.067316e+003,9.054924e+001
2.069245e+003,9.045757e+001
2.071173e+003,9.050838e+001
2.073102e+003,9.044952e+001
2.075030e+003,9.034655e+001
2.076959e+003,9.027060e+001
2.078887e+003,9.020718e+001
2.080816e+003,9.022423e+001
2.082744e+003,9.025190e+001
2.084673e+003,9.021497e+001
2.086601e+003,9.023451e+001
2.088530e+003,9.027070e+001
2.090458e+003,9.038992e+001
2.092386e+003,9.055685e+001
2.094315e+003,9.053746e+001
2.096243e+003,9.036929e+001
2.098172e+003,9.030340e+001
2.100100e+003,9.026535e+001
2.102029e+003,9.029711e+001
2.103957e+003,9.027833e+001
2.105886e+003,9.023731e+001
2.107814e+003,9.019741e+001
2.109743e+003,9.021033e+001
2.111671e+003,9.019561e+001
2.113600e+003,9.018395e+001
2.115528e+003,9.018826e+001
2.117457e+003,9.027158e+001
2.119385e+003,9.035842e+001
2.121313e+003,9.049420e+001
2.123242e+003,9.065360e+001
2.125170e+003,9.069209e+001
2.127099e+003,9.075305e+001
2.129027e+003,9.094376e+001
2.130956e+003,9.116142e+001
2.132884e+003,9.130594e+001
2.134813e+003,9.119938e+001
2.136741e+003,9.121844e+001
2.138670e+003,9.115907e+001
2.140598e+003,9.110848e+001
2.142527e+003,9.116389e+001
2.144455e+003,9.134462e+001
2.146384e+003,9.157971e+001
2.148312e+003,9.169272e+001
2.150240e+003,9.170215e+001
2.152169e+003,9.202253e+001
2.154097e+003,9.256638e+001
2.156026e+003,9.310151e+001
2.157954e+003,9.299748e+001
2.159883e+003,9.166525e+001
2.161811e+003,9.105275e+001
2.163740e+003,9.111697e+001
2.165668e+003,9.097937e+001
2.167597e+003,9.085270e+001
2.169525e+003,9.084831e+001
2.171454e+003,9.103533e+001
2.173382e+003,9.120607e+001
2.175311e+003,9.095642e+001
2.177239e+003,9.085853e+001
2.179167e+003,9.096363e+001
2.181096e+003,9.072070e+001
2.183024e+003,9.037347e+001
2.184953e+003,9.017064e+001
2.186881e+003,9.023096e+001
2.188810e+003,9.042759e+001
2.190738e+003,9.038670e+001
2.192667e+003,9.029737e+001
2.194595e+003,9.028178e+001
2.196524e+003,9.031286e+001
2.198452e+003,9.031012e+001
2.200381e+003,9.021293e+001
2.202309e+003,9.011623e+001
2.204238e+003,9.003551e+001
2.206166e+003,9.000583e+001
2.208094e+003,9.003687e+001
2.210023e+003,9.003188e+001
2.211951e+003,9.003134e+001
2.213880e+003,8.999190e+001
2.215808e+003,8.980386e+001
2.217737e+003,8.969958e+001
2.219665e+003,8.975697e+001
2.221594e+003,8.971181e+001
2.223522e+003,8.965393e+001
2.225451e+003,8.961592e+001
2.227379e+003,8.948727e+001
2.229308e+003,8.941472e+001
2.231236e+003,8.942384e+001
2.233165e+003,8.951340e+001
2.235093e+003,8.940955e+001
2.237021e+003,8.932124e+001
2.238950e+003,8.934060e+001
2.240878e+003,8.929974e+001
2.242807e+003,8.927282e+001
2.244735e+003,8.929315e+001
2.246664e+003,8.921893e+001
2.248592e+003,8.919504e+001
2.250521e+003,8.919045e+001
2.252449e+003,8.919725e+001
2.254378e+003,8.910217e+001
2.256306e+003,8.893886e+001
2.258235e+003,8.894630e+001
2.260163e+003,8.901012e+001
2.262092e+003,8.902883e+001
2.264020e+003,8.904927e+001
2.265948e+003,8.903375e+001
2.267877e+003,8.898729e+001
2.269805e+003,8.891983e+001
2.271734e+003,8.887872e+001
2.273662e+003,8.881645e+001
2.275591e+003,8.874107e+001
2.277519e+003,8.868632e+001
2.279448e+003,8.863763e+001
2.281376e+003,8.855035e+001
2.283305e+003,8.849678e+001
2.285233e+003,8.847920e+001
2.287162e+003,8.847609e+001
2.289090e+003,8.850586e+001
2.291019e+003,8.854204e+001
2.292947e+003,8.856889e+001
2.294875e+003,8.858500e+001
2.296804e+003,8.858331e+001
2.298732e+003,8.856953e+001
2.300661e+003,8.854068e+001
2.302589e+003,8.851421e+001
2.304518e+003,8.847971e+001
2.306446e+003,8.845226e+001
2.308375e+003,8.844710e+001
2.310303e+003,8.844169e+001
2.312232e+003,8.842513e+001
2.314160e+003,8.841597e+001
2.316089e+003,8.836753e+001
2.318017e+003,8.829609e+001
2.319946e+003,8.826121e+001
2.321874e+003,8.815746e+001
2.323802e+003,8.802024e+001
2.325731e+003,8.817714e+001
2.327659e+003,8.837033e+001
2.329588e+003,8.842468e+001
2.331516e+003,8.843642e+001
2.333445e+003,8.837199e+001
2.335373e+003,8.835877e+001
2.337302e+003,8.837071e+001
2.339230e+003,8.840920e+001
2.341159e+003,8.841766e+001
2.343087e+003,8.838957e+001
2.345016e+003,8.842290e+001
2.346944e+003,8.843373e+001
2.348873e+003,8.836788e+001
2.350801e+003,8.840683e+001
2.352729e+003,8.841570e+001
2.354658e+003,8.838796e+001
2.356586e+003,8.843129e+001
2.358515e+003,8.837299e+001
2.360443e+003,8.832336e+001
2.362372e+003,8.829780e+001
2.364300e+003,8.829203e+001
2.366229e+003,8.830061e+001
2.368157e+003,8.830183e+001
2.370086e+003,8.830383e+001
2.372014e+003,8.830029e+001
2.373942e+003,8.829019e+001
2.375871e+003,8.826016e+001
2.377799e+003,8.826434e+001
2.379728e+003,8.830396e+001
2.381656e+003,8.830245e+001
2.383585e+003,8.828822e+001
2.385513e+003,8.827467e+001
2.387442e+003,8.825873e+001
2.389370e+003,8.826393e+001
2.391299e+003,8.827415e+001
2.393227e+003,8.826045e+001
2.395156e+003,8.824960e+001
2.397084e+003,8.825728e+001
2.399012e+003,8.823415e+001
2.400941e+003,8.822607e+001
2.402869e+003,8.821908e+001
2.404798e+003,8.817380e+001
2.406726e+003,8.811692e+001
2.408655e+003,8.806794e+001
2.410583e+003,8.802576e+001
2.412512e+003,8.804675e+001
2.414440e+003,8.807852e+001
2.416369e+003,8.804800e+001
2.418297e+003,8.801292e+001
2.420226e+003,8.799012e+001
2.422154e+003,8.794633e+001
2.424083e+003,8.791615e+001
2.426011e+003,8.792113e+001
2.427939e+003,8.791408e+001
2.429868e+003,8.788432e+001
2.431796e+003,8.784422e+001
2.433725e+003,8.781136e+001
2.435653e+003,8.777124e+001
2.437582e+003,8.774609e+001
2.439510e+003,8.775206e+001
2.441439e+003,8.773711e+001
2.443367e+003,8.768986e+001
2.445296e+003,8.764127e+001
2.447224e+003,8.762699e+001
2.449153e+003,8.760654e+001
2.451081e+003,8.754286e+001
2.453010e+003,8.751032e+001
2.454938e+003,8.750687e+001
2.456866e+003,8.750450e+001
2.458795e+003,8.748216e+001
2.460723e+003,8.747940e+001
2.462652e+003,8.747817e+001
2.464580e+003,8.744337e+001
2.466509e+003,8.742342e+001
2.468437e+003,8.741064e+001
2.470366e+003,8.740156e+001
2.472294e+003,8.741620e+001
2.474223e+003,8.742641e+001
2.476151e+003,8.741113e+001
2.478080e+003,8.736353e+001
2.480008e+003,8.732986e+001
2.481937e+003,8.731465e+001
2.483865e+003,8.728995e+001
2.485793e+003,8.726070e+001
2.487722e+003,8.724462e+001
2.489650e+003,8.725380e+001
2.491579e+003,8.723301e+001
2.493507e+003,8.720901e+001
2.495436e+003,8.720969e+001
2.497364e+003,8.719047e+001
2.499293e+003,8.715617e+001
2.501221e+003,8.713963e+001
2.503150e+003,8.711819e+001
2.505078e+003,8.711322e+001
2.507007e+003,8.711820e+001
2.508935e+003,8.712750e+001
2.510864e+003,8.709614e+001
2.512792e+003,8.704894e+001
2.514720e+003,8.701585e+001
2.516649e+003,8.699335e+001
2.518577e+003,8.696864e+001
2.520506e+003,8.697551e+001
2.522434e+003,8.697258e+001
2.524363e+003,8.691272e+001
2.526291e+003,8.691611e+001
2.528220e+003,8.692587e+001
2.530148e+003,8.690226e+001
2.532077e+003,8.688549e+001
2.534005e+003,8.686667e+001
2.535934e+003,8.687138e+001
2.537862e+003,8.688612e+001
2.539791e+003,8.686078e+001
2.541719e+003,8.684418e+001
2.543647e+003,8.679884e+001
2.545576e+003,8.674568e+001
2.547504e+003,8.673438e+001
2.549433e+003,8.673479e+001
2.551361e+003,8.672775e+001
2.553290e+003,8.671149e+001
2.555218e+003,8.668320e+001
2.557147e+003,8.667459e+001
2.559075e+003,8.665069e+001
2.561004e+003,8.662282e+001
2.562932e+003,8.659597e+001
2.564861e+003,8.658437e+001
2.566789e+003,8.658107e+001
2.568718e+003,8.657329e+001
2.570646e+003,8.654508e+001
2.572574e+003,8.652521e+001
2.574503e+003,8.651806e+001
2.576431e+003,8.649387e+001
2.578360e+003,8.646112e+001
2.580288e+003,8.645468e+001
2.582217e+003,8.644024e+001
2.584145e+003,8.640765e+001
2.586074e+003,8.640868e+001
2.588002e+003,8.639571e+001
2.589931e+003,8.635947e+001
2.591859e+003,8.633562e+001
2.593788e+003,8.630898e+001
2.595716e+003,8.629472e+001
2.597645e+003,8.630060e+001
2.599573e+003,8.629276e+001
2.601501e+003,8.627100e+001
2.603430e+003,8.623944e+001
2.605358e+003,8.619362e+001
2.607287e+003,8.617773e+001
2.609215e+003,8.618356e+001
2.611144e+003,8.616932e+001
2.613072e+003,8.612395e+001
2.615001e+003,8.609678e+001
2.616929e+003,8.610255e+001
2.618858e+003,8.609108e+001
2.620786e+003,8.604536e+001
2.622715e+003,8.602563e+001
2.624643e+003,8.602065e+001
2.626572e+003,8.599049e+001
2.628500e+003,8.596739e+001
2.630428e+003,8.595539e+001
2.632357e+003,8.593561e+001
2.634285e+003,8.590237e+001
2.636214e+003,8.587925e+001
2.638142e+003,8.586777e+001
2.640071e+003,8.585594e+001
2.641999e+003,8.582670e+001
2.643928e+003,8.578896e+001
2.645856e+003,8.576151e+001
2.647785e+003,8.574444e+001
2.649713e+003,8.573970e+001
2.651642e+003,8.573440e+001
2.653570e+003,8.572045e+001
2.655499e+003,8.570341e+001
2.657427e+003,8.568855e+001
2.659355e+003,8.568378e+001
2.661284e+003,8.569363e+001
2.663212e+003,8.570948e+001
2.665141e+003,8.571539e+001
2.667069e+003,8.571756e+001
2.668998e+003,8.571774e+001
2.670926e+003,8.570390e+001
2.672855e+003,8.567675e+001
2.674783e+003,8.565018e+001
2.676712e+003,8.563713e+001
2.678640e+003,8.563166e+001
2.680569e+003,8.561478e+001
2.682497e+003,8.558769e+001
2.684426e+003,8.557153e+001
2.686354e+003,8.555381e+001
2.688282e+003,8.553784e+001
2.690211e+003,8.551747e+001
2.692139e+003,8.549333e+001
2.694068e+003,8.546332e+001
2.695996e+003,8.544196e+001
2.697925e+003,8.542461e+001
2.699853e+003,8.539645e+001
2.701782e+003,8.537425e+001
2.703710e+003,8.535515e+001
2.705639e+003,8.532613e+001
2.707567e+003,8.529270e+001
2.709496e+003,8.526085e+001
2.711424e+003,8.524411e+001
2.713353e+003,8.523196e+001
2.715281e+003,8.520949e+001
2.717209e+003,8.517115e+001
2.719138e+003,8.514401e+001
2.721066e+003,8.512061e+001
2.722995e+003,8.509507e+001
2.724923e+003,8.507354e+001
2.726852e+003,8.504462e+001
2.728780e+003,8.501257e+001
2.730709e+003,8.498991e+001
2.732637e+003,8.496858e+001
2.734566e+003,8.494927e+001
2.736494e+003,8.492480e+001
2.738423e+003,8.489413e+001
2.740351e+003,8.486450e+001
2.742280e+003,8.482484e+001
2.744208e+003,8.479885e+001
2.746136e+003,8.478390e+001
2.748065e+003,8.476427e+001
2.749993e+003,8.473770e+001
2.751922e+003,8.472211e+001
2.753850e+003,8.470936e+001
2.755779e+003,8.468038e+001
2.757707e+003,8.465433e+001
2.759636e+003,8.463242e+001
2.761564e+003,8.462202e+001
2.763493e+003,8.460810e+001
2.765421e+003,8.459814e+001
2.767350e+003,8.458237e+001
2.769278e+003,8.455878e+001
2.771207e+003,8.454755e+001
2.773135e+003,8.452036e+001
2.775063e+003,8.449164e+001
2.776992e+003,8.447662e+001
2.778920e+003,8.447045e+001
2.780849e+003,8.446286e+001
2.782777e+003,8.444427e+001
2.784706e+003,8.443217e+001
2.786634e+003,8.441689e+001
2.788563e+003,8.439159e+001
2.790491e+003,8.438707e+001
2.792420e+003,8.439388e+001
2.794348e+003,8.438394e+001
2.796277e+003,8.437646e+001
2.798205e+003,8.437124e+001
2.800134e+003,8.436751e+001
2.802062e+003,8.434047e+001
2.803990e+003,8.432594e+001
2.805919e+003,8.430901e+001
2.807847e+003,8.429602e+001
2.809776e+003,8.428684e+001
2.811704e+003,8.427475e+001
2.813633e+003,8.426915e+001
2.815561e+003,8.425913e+001
2.817490e+003,8.425491e+001
2.819418e+003,8.423892e+001
2.821347e+003,8.421029e+001
2.823275e+003,8.419711e+001
2.825204e+003,8.419888e+001
2.827132e+003,8.420103e+001
2.829061e+003,8.417610e+001
2.830989e+003,8.417128e+001
2.832917e+003,8.416537e+001
2.834846e+003,8.414610e+001
2.836774e+003,8.413071e+001
2.838703e+003,8.412503e+001
2.840631e+003,8.411874e+001
2.842560e+003,8.411718e+001
2.844488e+003,8.408975e+001
2.846417e+003,8.405978e+001
2.848345e+003,8.405344e+001
2.850274e+003,8.407242e+001
2.852202e+003,8.407360e+001
2.854131e+003,8.406118e+001
2.856059e+003,8.407045e+001
2.857988e+003,8.409343e+001
2.859916e+003,8.411651e+001
2.861844e+003,8.412420e+001
2.863773e+003,8.411454e+001
2.865701e+003,8.411157e+001
2.867630e+003,8.411346e+001
2.869558e+003,8.412341e+001
2.871487e+003,8.411646e+001
2.873415e+003,8.411218e+001
2.875344e+003,8.411790e+001
2.877272e+003,8.411210e+001
2.879201e+003,8.410991e+001
2.881129e+003,8.411440e+001
2.883058e+003,8.411886e+001
2.884986e+003,8.411346e+001
2.886915e+003,8.408939e+001
2.888843e+003,8.407257e+001
2.890771e+003,8.405634e+001
2.892700e+003,8.405322e+001
2.894628e+003,8.404449e+001
2.896557e+003,8.402382e+001
2.898485e+003,8.401646e+001
2.900414e+003,8.398978e+001
2.902342e+003,8.395700e+001
2.904271e+003,8.394957e+001
2.906199e+003,8.394276e+001
2.908128e+003,8.392484e+001
2.910056e+003,8.389804e+001
2.911985e+003,8.386237e+001
2.913913e+003,8.382056e+001
2.915842e+003,8.380346e+001
2.917770e+003,8.378042e+001
2.919698e+003,8.375372e+001
2.921627e+003,8.373322e+001
2.923555e+003,8.372581e+001
2.925484e+003,8.372654e+001
2.927412e+003,8.373957e+001
2.929341e+003,8.375296e+001
2.931269e+003,8.375910e+001
2.933198e+003,8.378117e+001
2.935126e+003,8.381292e+001
2.937055e+003,8.382698e+001
2.938983e+003,8.384106e+001
2.940912e+003,8.384602e+001
2.942840e+003,8.385548e+001
2.944769e+003,8.386832e+001
2.946697e+003,8.388124e+001
2.948625e+003,8.389043e+001
2.950554e+003,8.389237e+001
2.952482e+003,8.388752e+001
2.954411e+003,8.390338e+001
2.956339e+003,8.391060e+001
2.958268e+003,8.389917e+001
2.960196e+003,8.390363e+001
2.962125e+003,8.390771e+001
2.964053e+003,8.391019e+001
2.965982e+003,8.393471e+001
2.967910e+003,8.392931e+001
2.969839e+003,8.391491e+001
2.971767e+003,8.393082e+001
2.973696e+003,8.394815e+001
2.975624e+003,8.394562e+001
2.977552e+003,8.396227e+001
2.979481e+003,8.396915e+001
2.981409e+003,8.397249e+001
2.983338e+003,8.395660e+001
2.985266e+003,8.394769e+001
2.987195e+003,8.394741e+001
2.989123e+003,8.395332e+001
2.991052e+003,8.395973e+001
2.992980e+003,8.395876e+001
2.994909e+003,8.395586e+001
2.996837e+003,8.396281e+001
2.998766e+003,8.396706e+001
3.000694e+003,8.397102e+001
3.002623e+003,8.397014e+001
3.004551e+003,8.397861e+001
3.006479e+003,8.398348e+001
3.008408e+003,8.399320e+001
3.010336e+003,8.398630e+001
3.012265e+003,8.396491e+001
3.014193e+003,8.397652e+001
3.016122e+003,8.398521e+001
3.018050e+003,8.399526e+001
3.019979e+003,8.399390e+001
3.021907e+003,8.399006e+001
3.023836e+003,8.399577e+001
3.025764e+003,8.400361e+001
3.027693e+003,8.400798e+001
3.029621e+003,8.399877e+001
3.031550e+003,8.400411e+001
3.033478e+003,8.402015e+001
3.035406e+003,8.403455e+001
3.037335e+003,8.404472e+001
3.039263e+003,8.403931e+001
3.041192e+003,8.402572e+001
3.043120e+003,8.403813e+001
3.045049e+003,8.405843e+001
3.046977e+003,8.408659e+001
3.048906e+003,8.409721e+001
3.050834e+003,8.410448e+001
3.052763e+003,8.412012e+001
3.054691e+003,8.413921e+001
3.056620e+003,8.416510e+001
3.058548e+003,8.418704e+001
3.060477e+003,8.419479e+001
3.062405e+003,8.420200e+001
3.064333e+003,8.422816e+001
3.066262e+003,8.425826e+001
3.068190e+003,8.428046e+001
3.070119e+003,8.430402e+001
3.072047e+003,8.431075e+001
3.073976e+003,8.433110e+001
3.075904e+003,8.435669e+001
3.077833e+003,8.437560e+001
3.079761e+003,8.440831e+001
3.081690e+003,8.444172e+001
3.083618e+003,8.446071e+001
3.085547e+003,8.448486e+001
3.087475e+003,8.452481e+001
3.089404e+003,8.455637e+001
3.091332e+003,8.458054e+001
3.093260e+003,8.461465e+001
3.095189e+003,8.462892e+001
3.097117e+003,8.464722e+001
3.099046e+003,8.466013e+001
3.100974e+003,8.467625e+001
3.102903e+003,8.470354e+001
3.104831e+003,8.471676e+001
3.106760e+003,8.470924e+001
3.108688e+003,8.473026e+001
3.110617e+003,8.475089e+001
3.112545e+003,8.475440e+001
3.114474e+003,8.474450e+001
3.116402e+003,8.474613e+001
3.118331e+003,8.474815e+001
3.120259e+003,8.473993e+001
3.122188e+003,8.475793e+001
3.124116e+003,8.475882e+001
3.126044e+003,8.476629e+001
3.127973e+003,8.477596e+001
3.129901e+003,8.476511e+001
3.131830e+003,8.475439e+001
3.133758e+003,8.474709e+001
3.135687e+003,8.474711e+001
3.137615e+003,8.473872e+001
3.139544e+003,8.472514e+001
3.141472e+003,8.470811e+001
3.143401e+003,8.468997e+001
3.145329e+003,8.469859e+001
3.147258e+003,8.468158e+001
3.149186e+003,8.464621e+001
3.151115e+003,8.462527e+001
3.153043e+003,8.462178e+001
3.154971e+003,8.464253e+001
3.156900e+003,8.464418e+001
3.158828e+003,8.463670e+001
3.160757e+003,8.463893e+001
3.162685e+003,8.461968e+001
3.164614e+003,8.460425e+001
3.166542e+003,8.462190e+001
3.168471e+003,8.461876e+001
3.170399e+003,8.461124e+001
3.172328e+003,8.462655e+001
3.174256e+003,8.463168e+001
3.176185e+003,8.465491e+001
3.178113e+003,8.468378e+001
3.180042e+003,8.467961e+001
3.181970e+003,8.468256e+001
3.183898e+003,8.469158e+001
3.185827e+003,8.469794e+001
3.187755e+003,8.472006e+001
3.189684e+003,8.474995e+001
3.191612e+003,8.478320e+001
3.193541e+003,8.481414e+001
3.195469e+003,8.484667e+001
3.197398e+003,8.488099e+001
3.199326e+003,8.488601e+001
3.201255e+003,8.490342e+001
3.203183e+003,8.494166e+001
3.205112e+003,8.497608e+001
3.207040e+003,8.500329e+001
3.208969e+003,8.503284e+001
3.210897e+003,8.507165e+001
3.212825e+003,8.510390e+001
3.214754e+003,8.514995e+001
3.216682e+003,8.519929e+001
3.218611e+003,8.523141e+001
3.220539e+003,8.528080e+001
3.222468e+003,8.534721e+001
3.224396e+003,8.539314e+001
3.226325e+003,8.543006e+001
3.228253e+003,8.547833e+001
3.230182e+003,8.551457e+001
3.232110e+003,8.553883e+001
3.234039e+003,8.558997e+001
3.235967e+003,8.565897e+001
3.237896e+003,8.571295e+001
3.239824e+003,8.577258e+001
3.241752e+003,8.582364e+001
3.243681e+003,8.587809e+001
3.245609e+003,8.590738e+001
3.247538e+003,8.596614e+001
3.249466e+003,8.603894e+001
3.251395e+003,8.609892e+001
3.253323e+003,8.613411e+001
3.255252e+003,8.617230e+001
3.257180e+003,8.622652e+001
3.259109e+003,8.630008e+001
3.261037e+003,8.637502e+001
3.262966e+003,8.643788e+001
3.264894e+003,8.649215e+001
3.266823e+003,8.653223e+001
3.268751e+003,8.655092e+001
3.270679e+003,8.660852e+001
3.272608e+003,8.669933e+001
3.274536e+003,8.676614e+001
3.276465e+003,8.683121e+001
3.278393e+003,8.690258e+001
3.280322e+003,8.694971e+001
3.282250e+003,8.698319e+001
3.284179e+003,8.705181e+001
3.286107e+003,8.713121e+001
3.288036e+003,8.717008e+001
3.289964e+003,8.721971e+001
3.291893e+003,8.727619e+001
3.293821e+003,8.733456e+001
3.295750e+003,8.738701e+001
3.297678e+003,8.744695e+001
3.299606e+003,8.750440e+001
3.301535e+003,8.755712e+001
3.303463e+003,8.759809e+001
3.305392e+003,8.763516e+001
3.307320e+003,8.769994e+001
3.309249e+003,8.775821e+001
3.311177e+003,8.779768e+001
3.313106e+003,8.783498e+001
3.315034e+003,8.789528e+001
3.316963e+003,8.794825e+001
3.318891e+003,8.797737e+001
3.320820e+003,8.802688e+001
3.322748e+003,8.806474e+001
3.324677e+003,8.809260e+001
3.326605e+003,8.812193e+001
3.328533e+003,8.816425e+001
3.330462e+003,8.820130e+001
3.332390e+003,8.823515e+001
3.334319e+003,8.826919e+001
3.336247e+003,8.830480e+001
3.338176e+003,8.834353e+001
3.340104e+003,8.837139e+001
3.342033e+003,8.839481e+001
3.343961e+003,8.843815e+001
3.345890e+003,8.847583e+001
3.347818e+003,8.850362e+001
3.349747e+003,8.852671e+001
3.351675e+003,8.856069e+001
3.353604e+003,8.858452e+001
3.355532e+003,8.861565e+001
3.357460e+003,8.864840e+001
3.359389e+003,8.866472e+001
3.361317e+003,8.868912e+001
3.363246e+003,8.872388e+001
3.365174e+003,8.876967e+001
3.367103e+003,8.879401e+001
3.369031e+003,8.879712e+001
3.370960e+003,8.884492e+001
3.372888e+003,8.888544e+001
3.374817e+003,8.887936e+001
3.376745e+003,8.890060e+001
3.378674e+003,8.894781e+001
3.380602e+003,8.897027e+001
3.382531e+003,8.897717e+001
3.384459e+003,8.899740e+001
3.386387e+003,8.903378e+001
3.388316e+003,8.905947e+001
3.390244e+003,8.905339e+001
3.392173e+003,8.905441e+001
3.394101e+003,8.908497e+001
3.396030e+003,8.911631e+001
3.397958e+003,8.912463e+001
3.399887e+003,8.913499e+001
3.401815e+003,8.917136e+001
3.403744e+003,8.919662e+001
3.405672e+003,8.921890e+001
3.407601e+003,8.924627e+001
3.409529e+003,8.926262e+001
3.411458e+003,8.926369e+001
3.413386e+003,8.927113e+001
3.415314e+003,8.929237e+001
3.417243e+003,8.931112e+001
3.419171e+003,8.931960e+001
3.421100e+003,8.934480e+001
3.423028e+003,8.937573e+001
3.424957e+003,8.939043e+001
3.426885e+003,8.939917e+001
3.428814e+003,8.941868e+001
3.430742e+003,8.942895e+001
3.432671e+003,8.945022e+001
3.434599e+003,8.947985e+001
3.436528e+003,8.950719e+001
3.438456e+003,8.952411e+001
3.440385e+003,8.954974e+001
3.442313e+003,8.956911e+001
3.444241e+003,8.958244e+001
3.446170e+003,8.961852e+001
3.448098e+003,8.964598e+001
3.450027e+003,8.966703e+001
3.451955e+003,8.967451e+001
3.453884e+003,8.969978e+001
3.455812e+003,8.973930e+001
3.457741e+003,8.974265e+001
3.459669e+003,8.977879e+001
3.461598e+003,8.982624e+001
3.463526e+003,8.985779e+001
3.465455e+003,8.988225e+001
3.467383e+003,8.989744e+001
3.469312e+003,8.992949e+001
3.471240e+003,8.995824e+001
3.473168e+003,8.996934e+001
3.475097e+003,8.998901e+001
3.477025e+003,9.002787e+001
3.478954e+003,9.006459e+001
3.480882e+003,9.009390e+001
3.482811e+003,9.012121e+001
3.484739e+003,9.014297e+001
3.486668e+003,9.016394e+001
3.488596e+003,9.019833e+001
3.490525e+003,9.024475e+001
3.492453e+003,9.027213e+001
3.494382e+003,9.029070e+001
3.496310e+003,9.031873e+001
3.498239e+003,9.034712e+001
3.500167e+003,9.035572e+001
3.502095e+003,9.038311e+001
3.504024e+003,9.041714e+001
3.505952e+003,9.042944e+001
3.507881e+003,9.043850e+001
3.509809e+003,9.046635e+001
3.511738e+003,9.050544e+001
3.513666e+003,9.053456e+001
3.515595e+003,9.055698e+001
3.517523e+003,9.057221e+001
3.519452e+003,9.058607e+001
3.521380e+003,9.062272e+001
3.523309e+003,9.066353e+001
3.525237e+003,9.068555e+001
3.527166e+003,9.068886e+001
3.529094e+003,9.069809e+001
3.531022e+003,9.072563e+001
3.532951e+003,9.075339e+001
3.534879e+003,9.079662e+001
3.536808e+003,9.085987e+001
3.538736e+003,9.089272e+001
3.540665e+003,9.089854e+001
3.542593e+003,9.088918e+001
3.544522e+003,9.089206e+001
3.546450e+003,9.093288e+001
3.548379e+003,9.097598e+001
3.550307e+003,9.099713e+001
3.552236e+003,9.102042e+001
3.554164e+003,9.105325e+001
3.556093e+003,9.107465e+001
3.558021e+003,9.111141e+001
3.559949e+003,9.115810e+001
3.561878e+003,9.119813e+001
3.563806e+003,9.121446e+001
3.565735e+003,9.123268e+001
3.567663e+003,9.125819e+001
3.569592e+003,9.127505e+001
3.571520e+003,9.129089e+001
3.573449e+003,9.131120e+001
3.575377e+003,9.132850e+001
3.577306e+003,9.135845e+001
3.579234e+003,9.140822e+001
3.581163e+003,9.143040e+001
3.583091e+003,9.143404e+001
3.585020e+003,9.146490e+001
3.586948e+003,9.149357e+001
3.588876e+003,9.152490e+001
3.590805e+003,9.156521e+001
3.592733e+003,9.158614e+001
3.594662e+003,9.160059e+001
3.596590e+003,9.162558e+001
3.598519e+003,9.163338e+001
3.600447e+003,9.165118e+001
3.602376e+003,9.169053e+001
3.604304e+003,9.171684e+001
3.606233e+003,9.173713e+001
3.608161e+003,9.177232e+001
3.610090e+003,9.180862e+001
3.612018e+003,9.182279e+001
3.613947e+003,9.183382e+001
3.615875e+003,9.186665e+001
3.617803e+003,9.189439e+001
3.619732e+003,9.192651e+001
3.621660e+003,9.194920e+001
3.623589e+003,9.198230e+001
3.625517e+003,9.198774e+001
3.627446e+003,9.197642e+001
3.629374e+003,9.201157e+001
3.631303e+003,9.202225e+001
3.633231e+003,9.204303e+001
3.635160e+003,9.206774e+001
3.637088e+003,9.209640e+001
3.639017e+003,9.212332e+001
3.640945e+003,9.213239e+001
3.642874e+003,9.213901e+001
3.644802e+003,9.215926e+001
3.646730e+003,9.219274e+001
3.648659e+003,9.219230e+001
3.650587e+003,9.219675e+001
3.652516e+003,9.218850e+001
3.654444e+003,9.217913e+001
3.656373e+003,9.220636e+001
3.658301e+003,9.220999e+001
3.660230e+003,9.219905e+001
3.662158e+003,9.220586e+001
3.664087e+003,9.221626e+001
3.666015e+003,9.223474e+001
3.667944e+003,9.223379e+001
3.669872e+003,9.220977e+001
3.671801e+003,9.220790e+001
3.673729e+003,9.221709e+001
3.675657e+003,9.222173e+001
3.677586e+003,9.222276e+001
3.679514e+003,9.221656e+001
3.681443e+003,9.218787e+001
3.683371e+003,9.217548e+001
3.685300e+003,9.219067e+001
3.687228e+003,9.218375e+001
3.689157e+003,9.215286e+001
3.691085e+003,9.212473e+001
3.693014e+003,9.213026e+001
3.694942e+003,9.212545e+001
3.696871e+003,9.212022e+001
3.698799e+003,9.212184e+001
3.700728e+003,9.211089e+001
3.702656e+003,9.208411e+001
3.704584e+003,9.207361e+001
3.706513e+003,9.208360e+001
3.708441e+003,9.209335e+001
3.710370e+003,9.208001e+001
3.712298e+003,9.205135e+001
3.714227e+003,9.204355e+001
3.716155e+003,9.203433e+001
3.718084e+003,9.202876e+001
3.720012e+003,9.201508e+001
3.721941e+003,9.201045e+001
3.723869e+003,9.201293e+001
3.725798e+003,9.198646e+001
3.727726e+003,9.196714e+001
3.729655e+003,9.197966e+001
3.731583e+003,9.195997e+001
3.733511e+003,9.194366e+001
3.735440e+003,9.193433e+001
3.737368e+003,9.194257e+001
3.739297e+003,9.194539e+001
3.741225e+003,9.194007e+001
3.743154e+003,9.191939e+001
3.745082e+003,9.191323e+001
3.747011e+003,9.190300e+001
3.748939e+003,9.191295e+001
3.750868e+003,9.191517e+001
3.752796e+003,9.190389e+001
3.754725e+003,9.189536e+001
3.756653e+003,9.190438e+001
3.758582e+003,9.192544e+001
3.760510e+003,9.190982e+001
3.762438e+003,9.190128e+001
3.764367e+003,9.191606e+001
3.766295e+003,9.191142e+001
3.768224e+003,9.189437e+001
3.770152e+003,9.188998e+001
3.772081e+003,9.189600e+001
3.774009e+003,9.190668e+001
3.775938e+003,9.188793e+001
3.777866e+003,9.186546e+001
3.779795e+003,9.187173e+001
3.781723e+003,9.187439e+001
3.783652e+003,9.186313e+001
3.785580e+003,9.187270e+001
3.787509e+003,9.188208e+001
3.789437e+003,9.186181e+001
3.791365e+003,9.185258e+001
3.793294e+003,9.185512e+001
3.795222e+003,9.185489e+001
3.797151e+003,9.183299e+001
3.799079e+003,9.182530e+001
3.801008e+003,9.183541e+001
3.802936e+003,9.183724e+001
3.804865e+003,9.184020e+001
3.806793e+003,9.184125e+001
3.808722e+003,9.183901e+001
3.810650e+003,9.183355e+001
3.812579e+003,9.182281e+001
3.814507e+003,9.180627e+001
3.816436e+003,9.180575e+001
3.818364e+003,9.180919e+001
3.820292e+003,9.179395e+001
3.822221e+003,9.179923e+001
3.824149e+003,9.180645e+001
3.826078e+003,9.179422e+001
3.828006e+003,9.178790e+001
3.829935e+003,9.179164e+001
3.831863e+003,9.179234e+001
3.833792e+003,9.176846e+001
3.835720e+003,9.176187e+001
3.837649e+003,9.178048e+001
3.839577e+003,9.178009e+001
3.841506e+003,9.176106e+001
3.843434e+003,9.175923e+001
3.845363e+003,9.176506e+001
3.847291e+003,9.175491e+001
3.849219e+003,9.175235e+001
3.851148e+003,9.176173e+001
3.853076e+003,9.175012e+001
3.855005e+003,9.174045e+001
3.856933e+003,9.175378e+001
3.858862e+003,9.174564e+001
3.860790e+003,9.172468e+001
3.862719e+003,9.170116e+001
3.864647e+003,9.170426e+001
3.866576e+003,9.170828e+001
3.868504e+003,9.173000e+001
3.870433e+003,9.173270e+001
3.872361e+003,9.171671e+001
3.874290e+003,9.171251e+001
3.876218e+003,9.170908e+001
3.878146e+003,9.170479e+001
3.880075e+003,9.170294e+001
3.882003e+003,9.169218e+001
3.883932e+003,9.168773e+001
3.885860e+003,9.169582e+001
3.887789e+003,9.168253e+001
3.889717e+003,9.168176e+001
3.891646e+003,9.168347e+001
3.893574e+003,9.167339e+001
3.895503e+003,9.166486e+001
3.897431e+003,9.166129e+001
3.899360e+003,9.165874e+001
3.901288e+003,9.165617e+001
3.903217e+003,9.166558e+001
3.905145e+003,9.167603e+001
3.907073e+003,9.166996e+001
3.909002e+003,9.166516e+001
3.910930e+003,9.166326e+001
3.912859e+003,9.164801e+001
3.914787e+003,9.164235e+001
3.916716e+003,9.164117e+001
3.918644e+003,9.164342e+001
3.920573e+003,9.164854e+001
3.922501e+003,9.165607e+001
3.924430e+003,9.166036e+001
3.926358e+003,9.164853e+001
3.928287e+003,9.164673e+001
3.930215e+003,9.164428e+001
3.932144e+003,9.163002e+001
3.934072e+003,9.162740e+001
3.936000e+003,9.164245e+001
3.937929e+003,9.165801e+001
3.939857e+003,9.164413e+001
3.941786e+003,9.164218e+001
3.943714e+003,9.163026e+001
3.945643e+003,9.162138e+001
3.947571e+003,9.163004e+001
3.949500e+003,9.163226e+001
3.951428e+003,9.162696e+001
3.953357e+003,9.161860e+001
3.955285e+003,9.161252e+001
3.957214e+003,9.161483e+001
3.959142e+003,9.162339e+001
3.961071e+003,9.163482e+001
3.962999e+003,9.161737e+001
3.964927e+003,9.160400e+001
3.966856e+003,9.160637e+001
3.968784e+003,9.161092e+001
3.970713e+003,9.163258e+001
3.972641e+003,9.165092e+001
3.974570e+003,9.162746e+001
3.976498e+003,9.160712e+001
3.978427e+003,9.159909e+001
3.980355e+003,9.158630e+001
3.982284e+003,9.158639e+001
3.984212e+003,9.159065e+001
3.986141e+003,9.160746e+001
3.988069e+003,9.160427e+001
3.989998e+003,9.159330e+001
3.991926e+003,9.158992e+001
3.993854e+003,9.160107e+001
3.995783e+003,9.158900e+001
3.997711e+003,9.156821e+001
3.999640e+003,9.155806e+001
4.001568e+003,0.000000e+000
