10	333
10.01	316
10.02	327
10.03	314
10.04	317
10.05	325
10.06	295
10.07	319
10.08	343
10.09	305
10.1	289
10.11	334
10.12	332
10.13	306
10.14	318
10.15	286
10.16	332
10.17	341
10.18	294
10.19	295
10.2	281
10.21	291
10.22	310
10.23	289
10.24	266
10.25	280
10.26	286
10.27	279
10.28	276
10.29	277
10.3	294
10.31	269
10.32	282
10.33	259
10.34	257
10.35	263
10.36	228
10.37	267
10.38	236
10.39	236
10.4	252
10.41	247
10.42	239
10.43	229
10.44	224
10.45	269
10.46	216
10.47	217
10.48	233
10.49	223
10.5	234
10.51	203
10.52	216
10.53	194
10.54	202
10.55	167
10.56	172
10.57	208
10.58	181
10.59	163
10.6	195
10.61	203
10.62	193
10.63	176
10.64	163
10.65	167
10.66	175
10.67	193
10.68	192
10.69	166
10.7	161
10.71	190
10.72	164
10.73	170
10.74	168
10.75	183
10.76	192
10.77	167
10.78	188
10.79	165
10.8	180
10.81	193
10.82	196
10.83	174
10.84	178
10.85	177
10.86	191
10.87	179
10.88	166
10.89	183
10.9	152
10.91	181
10.92	167
10.93	176
10.94	172
10.95	165
10.96	193
10.97	164
10.98	179
10.99	180
11	160
11.01	147
11.02	151
11.03	202
11.04	176
11.05	158
11.06	168
11.07	171
11.08	169
11.09	162
11.1	181
11.11	177
11.12	188
11.13	167
11.14	159
11.15	165
11.16	194
11.17	177
11.18	186
11.19	166
11.2	166
11.21	136
11.22	182
11.23	171
11.24	198
11.25	163
11.26	147
11.27	200
11.28	173
11.29	186
11.3	153
11.31	160
11.32	170
11.33	180
11.34	183
11.35	165
11.36	163
11.37	156
11.38	165
11.39	197
11.4	161
11.41	167
11.42	173
11.43	200
11.44	179
11.45	167
11.46	153
11.47	172
11.48	178
11.49	174
11.5	171
11.51	180
11.52	183
11.53	149
11.54	153
11.55	166
11.56	192
11.57	163
11.58	170
11.59	172
11.6	180
11.61	183
11.62	170
11.63	167
11.64	190
11.65	172
11.66	164
11.67	187
11.68	175
11.69	182
11.7	163
11.71	153
11.72	159
11.73	197
11.74	195
11.75	172
11.76	174
11.77	169
11.78	185
11.79	171
11.8	173
11.81	158
11.82	172
11.83	167
11.84	195
11.85	171
11.86	156
11.87	184
11.88	183
11.89	182
11.9	177
11.91	197
11.92	190
11.93	153
11.94	177
11.95	164
11.96	170
11.97	174
11.98	159
11.99	180
12	166
12.01	195
12.02	145
12.03	182
12.04	177
12.05	186
12.06	172
12.07	165
12.08	176
12.09	169
12.1	182
12.11	167
12.12	199
12.13	175
12.14	165
12.15	170
12.16	184
12.17	193
12.18	151
12.19	168
12.2	165
12.21	176
12.22	162
12.23	202
12.24	167
12.25	186
12.26	193
12.27	164
12.28	151
12.29	158
12.3	171
12.31	182
12.32	189
12.33	177
12.34	170
12.35	179
12.36	164
12.37	202
12.38	176
12.39	167
12.4	156
12.41	172
12.42	170
12.43	171
12.44	153
12.45	163
12.46	176
12.47	177
12.48	173
12.49	167
12.5	177
12.51	139
12.52	168
12.53	191
12.54	175
12.55	189
12.56	166
12.57	174
12.58	185
12.59	196
12.6	190
12.61	188
12.62	172
12.63	180
12.64	193
12.65	197
12.66	176
12.67	219
12.68	182
12.69	182
12.7	186
12.71	183
12.72	172
12.73	193
12.74	173
12.75	187
12.76	181
12.77	178
12.78	188
12.79	168
12.8	170
12.81	175
12.82	176
12.83	202
12.84	185
12.85	191
12.86	191
12.87	191
12.88	191
12.89	178
12.9	181
12.91	191
12.92	194
12.93	201
12.94	175
12.95	193
12.96	183
12.97	200
12.98	180
12.99	188
13	185
13.01	203
13.02	194
13.03	179
13.04	187
13.05	164
13.06	169
13.07	185
13.08	199
13.09	185
13.1	190
13.11	175
13.12	197
13.13	172
13.14	195
13.15	200
13.16	215
13.17	172
13.18	217
13.19	183
13.2	171
13.21	179
13.22	183
13.23	185
13.24	173
13.25	203
13.26	174
13.27	174
13.28	199
13.29	172
13.3	204
13.31	192
13.32	197
13.33	194
13.34	183
13.35	212
13.36	205
13.37	203
13.38	196
13.39	184
13.4	206
13.41	186
13.42	205
13.43	203
13.44	216
13.45	205
13.46	183
13.47	180
13.48	183
13.49	216
13.5	210
13.51	203
13.52	183
13.53	182
13.54	183
13.55	207
13.56	191
13.57	187
13.58	177
13.59	204
13.6	206
13.61	195
13.62	186
13.63	181
13.64	221
13.65	201
13.66	192
13.67	208
13.68	160
13.69	205
13.7	192
13.71	173
13.72	216
13.73	194
13.74	179
13.75	202
13.76	198
13.77	188
13.78	207
13.79	205
13.8	206
13.81	181
13.82	232
13.83	212
13.84	206
13.85	193
13.86	207
13.87	207
13.88	240
13.89	171
13.9	182
13.91	217
13.92	190
13.93	213
13.94	222
13.95	174
13.96	230
13.97	213
13.98	187
13.99	195
14	186
14.01	206
14.02	207
14.03	194
14.04	190
14.05	210
14.06	198
14.07	229
14.08	187
14.09	197
14.1	214
14.11	172
14.12	198
14.13	181
14.14	206
14.15	166
14.16	199
14.17	221
14.18	203
14.19	207
14.2	209
14.21	217
14.22	206
14.23	219
14.24	195
14.25	199
14.26	204
14.27	209
14.28	217
14.29	187
14.3	181
14.31	191
14.32	214
14.33	200
14.34	203
14.35	222
14.36	196
14.37	179
14.38	223
14.39	219
14.4	218
14.41	215
14.42	234
14.43	205
14.44	210
14.45	189
14.46	192
14.47	191
14.48	247
14.49	201
14.5	223
14.51	193
14.52	209
14.53	207
14.54	181
14.55	224
14.56	208
14.57	237
14.58	196
14.59	236
14.6	181
14.61	220
14.62	194
14.63	240
14.64	235
14.65	200
14.66	198
14.67	209
14.68	225
14.69	196
14.7	186
14.71	192
14.72	204
14.73	186
14.74	229
14.75	201
14.76	209
14.77	216
14.78	229
14.79	207
14.8	194
14.81	197
14.82	186
14.83	174
14.84	236
14.85	184
14.86	236
14.87	207
14.88	189
14.89	218
14.9	197
14.91	202
14.92	213
14.93	201
14.94	188
14.95	194
14.96	196
14.97	186
14.98	211
14.99	215
15	213
15.01	191
15.02	230
15.03	202
15.04	208
15.05	220
15.06	224
15.07	198
15.08	198
15.09	184
15.1	207
15.11	196
15.12	203
15.13	203
15.14	189
15.15	213
15.16	204
15.17	189
15.18	223
15.19	224
15.2	197
15.21	207
15.22	200
15.23	179
15.24	197
15.25	222
15.26	220
15.27	224
15.28	206
15.29	176
15.3	225
15.31	191
15.32	197
15.33	228
15.34	217
15.35	221
15.36	208
15.37	187
15.38	199
15.39	198
15.4	221
15.41	215
15.42	227
15.43	221
15.44	178
15.45	205
15.46	206
15.47	235
15.48	222
15.49	200
15.5	215
15.51	226
15.52	212
15.53	215
15.54	221
15.55	212
15.56	221
15.57	212
15.58	216
15.59	211
15.6	222
15.61	232
15.62	227
15.63	219
15.64	205
15.65	233
15.66	212
15.67	232
15.68	249
15.69	226
15.7	211
15.71	235
15.72	199
15.73	222
15.74	212
15.75	219
15.76	239
15.77	243
15.78	221
15.79	231
15.8	231
15.81	200
15.82	202
15.83	214
15.84	195
15.85	221
15.86	208
15.87	213
15.88	218
15.89	257
15.9	219
15.91	227
15.92	229
15.93	197
15.94	168
15.95	236
15.96	227
15.97	248
15.98	239
15.99	205
16	229
16.01	221
16.02	228
16.03	237
16.04	222
16.05	226
16.06	227
16.07	218
16.08	267
16.09	237
16.1	245
16.11	236
16.12	215
16.13	231
16.14	215
16.15	240
16.16	220
16.17	229
16.18	229
16.19	223
16.2	246
16.21	226
16.22	236
16.23	230
16.24	252
16.25	238
16.26	246
16.27	240
16.28	203
16.29	237
16.3	234
16.31	231
16.32	231
16.33	243
16.34	214
16.35	223
16.36	265
16.37	217
16.38	257
16.39	226
16.4	229
16.41	224
16.42	231
16.43	233
16.44	246
16.45	211
16.46	217
16.47	204
16.48	228
16.49	231
16.5	232
16.51	221
16.52	222
16.53	257
16.54	216
16.55	241
16.56	240
16.57	242
16.58	247
16.59	230
16.6	226
16.61	235
16.62	246
16.63	255
16.64	263
16.65	210
16.66	222
16.67	213
16.68	229
16.69	248
16.7	235
16.71	206
16.72	247
16.73	216
16.74	244
16.75	234
16.76	264
16.77	209
16.78	242
16.79	229
16.8	226
16.81	254
16.82	247
16.83	240
16.84	230
16.85	219
16.86	233
16.87	222
16.88	259
16.89	256
16.9	241
16.91	228
16.92	231
16.93	225
16.94	243
16.95	235
16.96	231
16.97	231
16.98	236
16.99	240
17	228
17.01	233
17.02	236
17.03	263
17.04	241
17.05	225
17.06	197
17.07	249
17.08	229
17.09	230
17.1	230
17.11	235
17.12	251
17.13	244
17.14	213
17.15	265
17.16	267
17.17	242
17.18	260
17.19	258
17.2	228
17.21	252
17.22	254
17.23	265
17.24	276
17.25	248
17.26	273
17.27	276
17.28	285
17.29	297
17.3	320
17.31	296
17.32	314
17.33	350
17.34	339
17.35	309
17.36	315
17.37	313
17.38	354
17.39	310
17.4	369
17.41	340
17.42	373
17.43	369
17.44	345
17.45	389
17.46	357
17.47	377
17.48	275
17.49	353
17.5	315
17.51	310
17.52	338
17.53	327
17.54	323
17.55	293
17.56	309
17.57	318
17.58	332
17.59	307
17.6	338
17.61	372
17.62	339
17.63	346
17.64	390
17.65	377
17.66	373
17.67	392
17.68	395
17.69	411
17.7	381
17.71	414
17.72	413
17.73	429
17.74	423
17.75	399
17.76	426
17.77	395
17.78	421
17.79	379
17.8	371
17.81	322
17.82	366
17.83	305
17.84	280
17.85	300
17.86	273
17.87	283
17.88	241
17.89	247
17.9	248
17.91	255
17.92	248
17.93	223
17.94	211
17.95	233
17.96	217
17.97	240
17.98	221
17.99	231
18	251
18.01	225
18.02	260
18.03	230
18.04	231
18.05	238
18.06	241
18.07	233
18.08	247
18.09	228
18.1	213
18.11	221
18.12	240
18.13	230
18.14	234
18.15	240
18.16	244
18.17	231
18.18	268
18.19	248
18.2	230
18.21	245
18.22	253
18.23	214
18.24	236
18.25	242
18.26	244
18.27	234
18.28	233
18.29	228
18.3	256
18.31	249
18.32	281
18.33	255
18.34	248
18.35	254
18.36	240
18.37	248
18.38	277
18.39	243
18.4	254
18.41	297
18.42	308
18.43	329
18.44	343
18.45	319
18.46	309
18.47	324
18.48	342
18.49	366
18.5	336
18.51	357
18.52	358
18.53	345
18.54	347
18.55	319
18.56	328
18.57	344
18.58	319
18.59	289
18.6	326
18.61	277
18.62	282
18.63	295
18.64	284
18.65	285
18.66	268
18.67	276
18.68	265
18.69	251
18.7	283
18.71	234
18.72	277
18.73	219
18.74	269
18.75	272
18.76	247
18.77	246
18.78	252
18.79	218
18.8	245
18.81	241
18.82	258
18.83	257
18.84	237
18.85	254
18.86	245
18.87	225
18.88	278
18.89	256
18.9	227
18.91	213
18.92	241
18.93	258
18.94	248
18.95	249
18.96	221
18.97	222
18.98	253
18.99	251
19	212
19.01	220
19.02	232
19.03	265
19.04	242
19.05	224
19.06	241
19.07	241
19.08	244
19.09	229
19.1	239
19.11	241
19.12	265
19.13	245
19.14	258
19.15	252
19.16	248
19.17	250
19.18	279
19.19	220
19.2	226
19.21	233
19.22	283
19.23	236
19.24	259
19.25	237
19.26	243
19.27	230
19.28	251
19.29	271
19.3	244
19.31	231
19.32	245
19.33	254
19.34	246
19.35	255
19.36	253
19.37	241
19.38	264
19.39	279
19.4	292
19.41	284
19.42	274
19.43	269
19.44	248
19.45	315
19.46	309
19.47	328
19.48	323
19.49	362
19.5	339
19.51	355
19.52	390
19.53	403
19.54	474
19.55	487
19.56	472
19.57	532
19.58	549
19.59	507
19.6	530
19.61	561
19.62	531
19.63	524
19.64	523
19.65	462
19.66	464
19.67	490
19.68	457
19.69	442
19.7	387
19.71	356
19.72	339
19.73	317
19.74	348
19.75	292
19.76	303
19.77	260
19.78	277
19.79	272
19.8	260
19.81	263
19.82	258
19.83	276
19.84	270
19.85	249
19.86	244
19.87	240
19.88	223
19.89	230
19.9	233
19.91	264
19.92	222
19.93	219
19.94	259
19.95	222
19.96	256
19.97	222
19.98	233
19.99	247
20	260
20.01	238
20.02	236
20.03	215
20.04	274
20.05	243
20.06	222
20.07	235
20.08	240
20.09	260
20.1	229
20.11	241
20.12	262
20.13	278
20.14	229
20.15	234
20.16	239
20.17	241
20.18	251
20.19	215
20.2	247
20.21	235
20.22	241
20.23	256
20.24	248
20.25	229
20.26	231
20.27	228
20.28	259
20.29	231
20.3	264
20.31	217
20.32	243
20.33	239
20.34	240
20.35	254
20.36	207
20.37	247
20.38	218
20.39	236
20.4	234
20.41	239
20.42	269
20.43	234
20.44	225
20.45	254
20.46	244
20.47	242
20.48	259
20.49	248
20.5	258
20.51	273
20.52	241
20.53	234
20.54	246
20.55	256
20.56	233
20.57	245
20.58	247
20.59	244
20.6	240
20.61	258
20.62	229
20.63	245
20.64	262
20.65	237
20.66	249
20.67	235
20.68	258
20.69	216
20.7	228
20.71	255
20.72	229
20.73	237
20.74	228
20.75	266
20.76	231
20.77	232
20.78	252
20.79	235
20.8	228
20.81	234
20.82	249
20.83	259
20.84	243
20.85	223
20.86	247
20.87	244
20.88	239
20.89	251
20.9	239
20.91	248
20.92	263
20.93	245
20.94	253
20.95	218
20.96	280
20.97	276
20.98	264
20.99	258
21	240
21.01	266
21.02	260
21.03	245
21.04	252
21.05	254
21.06	238
21.07	252
21.08	226
21.09	253
21.1	240
21.11	256
21.12	294
21.13	261
21.14	250
21.15	244
21.16	245
21.17	246
21.18	230
21.19	264
21.2	260
21.21	231
21.22	235
21.23	239
21.24	242
21.25	258
21.26	217
21.27	243
21.28	259
21.29	233
21.3	251
21.31	253
21.32	255
21.33	249
21.34	231
21.35	251
21.36	213
21.37	266
21.38	249
21.39	237
21.4	240
21.41	233
21.42	256
21.43	225
21.44	250
21.45	249
21.46	238
21.47	224
21.48	249
21.49	213
21.5	218
21.51	227
21.52	265
21.53	241
21.54	235
21.55	211
21.56	227
21.57	240
21.58	253
21.59	242
21.6	237
21.61	237
21.62	227
21.63	249
21.64	217
21.65	241
21.66	233
21.67	229
21.68	231
21.69	235
21.7	215
21.71	275
21.72	240
21.73	234
21.74	241
21.75	220
21.76	266
21.77	263
21.78	233
21.79	266
21.8	228
21.81	213
21.82	251
21.83	237
21.84	223
21.85	242
21.86	199
21.87	218
21.88	221
21.89	240
21.9	205
21.91	242
21.92	204
21.93	266
21.94	220
21.95	200
21.96	253
21.97	238
21.98	235
21.99	239
22	268
22.01	217
22.02	246
22.03	262
22.04	235
22.05	257
22.06	228
22.07	244
22.08	242
22.09	231
22.1	222
22.11	244
22.12	241
22.13	270
22.14	226
22.15	239
22.16	246
22.17	253
22.18	213
22.19	215
22.2	246
22.21	254
22.22	238
22.23	224
22.24	233
22.25	230
22.26	259
22.27	247
22.28	231
22.29	219
22.3	225
22.31	249
22.32	257
22.33	263
22.34	241
22.35	257
22.36	246
22.37	221
22.38	256
22.39	251
22.4	250
22.41	236
22.42	223
22.43	260
22.44	259
22.45	248
22.46	230
22.47	227
22.48	224
22.49	244
22.5	271
22.51	235
22.52	257
22.53	252
22.54	223
22.55	247
22.56	246
22.57	246
22.58	257
22.59	229
22.6	248
22.61	219
22.62	218
22.63	242
22.64	247
22.65	228
22.66	252
22.67	260
22.68	241
22.69	232
22.7	238
22.71	217
22.72	218
22.73	231
22.74	249
22.75	238
22.76	227
22.77	240
22.78	266
22.79	208
22.8	224
22.81	228
22.82	245
22.83	204
22.84	228
22.85	236
22.86	255
22.87	225
22.88	236
22.89	255
22.9	239
22.91	275
22.92	247
22.93	271
22.94	253
22.95	240
22.96	233
22.97	237
22.98	236
22.99	202
23	225
23.01	239
23.02	239
23.03	222
23.04	257
23.05	246
23.06	249
23.07	240
23.08	214
23.09	244
23.1	250
23.11	220
23.12	266
23.13	252
23.14	264
23.15	239
23.16	219
23.17	204
23.18	261
23.19	255
23.2	240
23.21	269
23.22	239
23.23	208
23.24	259
23.25	249
23.26	271
23.27	234
23.28	236
23.29	245
23.3	266
23.31	245
23.32	239
23.33	267
23.34	263
23.35	242
23.36	260
23.37	282
23.38	259
23.39	304
23.4	267
23.41	277
23.42	256
23.43	256
23.44	290
23.45	256
23.46	258
23.47	274
23.48	250
23.49	270
23.5	238
23.51	230
23.52	226
23.53	249
23.54	273
23.55	260
23.56	260
23.57	263
23.58	273
23.59	248
23.6	230
23.61	277
23.62	281
23.63	227
23.64	285
23.65	249
23.66	266
23.67	270
23.68	277
23.69	258
23.7	241
23.71	272
23.72	269
23.73	232
23.74	252
23.75	269
23.76	232
23.77	225
23.78	272
23.79	178
23.8	213
23.81	243
23.82	255
23.83	240
23.84	251
23.85	196
23.86	217
23.87	248
23.88	226
23.89	238
23.9	240
23.91	234
23.92	189
23.93	242
23.94	226
23.95	225
23.96	223
23.97	221
23.98	213
23.99	247
24	216
24.01	273
24.02	221
24.03	250
24.04	272
24.05	270
24.06	226
24.07	246
24.08	217
24.09	219
24.1	245
24.11	255
24.12	243
24.13	225
24.14	227
24.15	225
24.16	273
24.17	224
24.18	223
24.19	230
24.2	237
24.21	239
24.22	246
24.23	245
24.24	211
24.25	244
24.26	214
24.27	216
24.28	245
24.29	198
24.3	240
24.31	216
24.32	203
24.33	259
24.34	246
24.35	256
24.36	227
24.37	246
24.38	220
24.39	275
24.4	260
24.41	229
24.42	223
24.43	231
24.44	229
24.45	246
24.46	213
24.47	220
24.48	218
24.49	243
24.5	218
24.51	220
24.52	257
24.53	217
24.54	240
24.55	239
24.56	240
24.57	220
24.58	235
24.59	232
24.6	239
24.61	227
24.62	257
24.63	222
24.64	201
24.65	232
24.66	233
24.67	238
24.68	228
24.69	235
24.7	229
24.71	226
24.72	224
24.73	245
24.74	232
24.75	235
24.76	223
24.77	231
24.78	236
24.79	227
24.8	225
24.81	245
24.82	224
24.83	236
24.84	234
24.85	205
24.86	233
24.87	231
24.88	214
24.89	238
24.9	240
24.91	187
24.92	220
24.93	235
24.94	191
24.95	216
24.96	225
24.97	234
24.98	231
24.99	216
25	209
25.01	243
25.02	239
25.03	227
25.04	226
25.05	231
25.06	217
25.07	238
25.08	246
25.09	225
25.1	229
25.11	229
25.12	236
25.13	223
25.14	205
25.15	225
25.16	229
25.17	239
25.18	218
25.19	219
25.2	236
25.21	244
25.22	238
25.23	238
25.24	188
25.25	224
25.26	240
25.27	234
25.28	232
25.29	212
25.3	210
25.31	224
25.32	208
25.33	254
25.34	250
25.35	224
25.36	237
25.37	234
25.38	233
25.39	251
25.4	239
25.41	228
25.42	260
25.43	243
25.44	235
25.45	213
25.46	239
25.47	266
25.48	230
25.49	231
25.5	262
25.51	213
25.52	292
25.53	225
25.54	275
25.55	218
25.56	266
25.57	246
25.58	220
25.59	222
25.6	229
25.61	211
25.62	236
25.63	240
25.64	228
25.65	232
25.66	223
25.67	219
25.68	219
25.69	246
25.7	213
25.71	221
25.72	213
25.73	238
25.74	228
25.75	234
25.76	245
25.77	230
25.78	227
25.79	202
25.8	251
25.81	221
25.82	230
25.83	231
25.84	223
25.85	239
25.86	249
25.87	231
25.88	223
25.89	228
25.9	232
25.91	244
25.92	261
25.93	273
25.94	256
25.95	247
25.96	225
25.97	248
25.98	271
25.99	249
26	258
26.01	260
26.02	232
26.03	281
26.04	300
26.05	229
26.06	273
26.07	258
26.08	254
26.09	243
26.1	272
26.11	290
26.12	278
26.13	245
26.14	335
26.15	301
26.16	268
26.17	281
26.18	304
26.19	303
26.2	296
26.21	299
26.22	336
26.23	313
26.24	286
26.25	254
26.26	260
26.27	296
26.28	282
26.29	301
26.3	254
26.31	298
26.32	288
26.33	262
26.34	300
26.35	257
26.36	269
26.37	270
26.38	276
26.39	268
26.4	235
26.41	281
26.42	272
26.43	233
26.44	231
26.45	213
26.46	234
26.47	236
26.48	245
26.49	245
26.5	243
26.51	229
26.52	236
26.53	249
26.54	241
26.55	249
26.56	257
26.57	241
26.58	285
26.59	271
26.6	276
26.61	239
26.62	256
26.63	286
26.64	263
26.65	260
26.66	254
26.67	244
26.68	273
26.69	249
26.7	275
26.71	243
26.72	231
26.73	252
26.74	251
26.75	258
26.76	279
26.77	254
26.78	256
26.79	238
26.8	216
26.81	232
26.82	228
26.83	248
26.84	250
26.85	227
26.86	228
26.87	234
26.88	248
26.89	247
26.9	219
26.91	259
26.92	264
26.93	245
26.94	243
26.95	235
26.96	222
26.97	249
26.98	231
26.99	252
27	251
27.01	217
27.02	261
27.03	287
27.04	263
27.05	250
27.06	282
27.07	269
27.08	244
27.09	274
27.1	250
27.11	250
27.12	211
27.13	277
27.14	233
27.15	264
27.16	254
27.17	249
27.18	242
27.19	229
27.2	224
27.21	265
27.22	269
27.23	269
27.24	211
27.25	254
27.26	231
27.27	245
27.28	258
27.29	239
27.3	218
27.31	267
27.32	263
27.33	230
27.34	238
27.35	228
27.36	233
27.37	232
27.38	229
27.39	231
27.4	236
27.41	226
27.42	240
27.43	242
27.44	232
27.45	220
27.46	253
27.47	228
27.48	226
27.49	242
27.5	233
27.51	230
27.52	217
27.53	222
27.54	231
27.55	227
27.56	218
27.57	224
27.58	247
27.59	239
27.6	238
27.61	232
27.62	215
27.63	223
27.64	231
27.65	237
27.66	211
27.67	242
27.68	235
27.69	232
27.7	220
27.71	233
27.72	260
27.73	232
27.74	219
27.75	239
27.76	233
27.77	230
27.78	241
27.79	255
27.8	234
27.81	222
27.82	255
27.83	243
27.84	209
27.85	242
27.86	263
27.87	241
27.88	219
27.89	219
27.9	223
27.91	220
27.92	214
27.93	249
27.94	237
27.95	239
27.96	252
27.97	242
27.98	241
27.99	248
28	204
28.01	256
28.02	213
28.03	232
28.04	233
28.05	216
28.06	248
28.07	235
28.08	268
28.09	240
28.1	226
28.11	217
28.12	240
28.13	241
28.14	218
28.15	242
28.16	227
28.17	232
28.18	237
28.19	233
28.2	241
28.21	271
28.22	227
28.23	243
28.24	262
28.25	256
28.26	277
28.27	279
28.28	279
28.29	265
28.3	272
28.31	286
28.32	333
28.33	312
28.34	341
28.35	304
28.36	340
28.37	311
28.38	301
28.39	311
28.4	324
28.41	361
28.42	366
28.43	337
28.44	357
28.45	326
28.46	321
28.47	341
28.48	325
28.49	302
28.5	279
28.51	291
28.52	310
28.53	295
28.54	272
28.55	252
28.56	316
28.57	271
28.58	261
28.59	290
28.6	278
28.61	257
28.62	262
28.63	230
28.64	260
28.65	233
28.66	242
28.67	270
28.68	266
28.69	249
28.7	268
28.71	227
28.72	243
28.73	230
28.74	223
28.75	236
28.76	226
28.77	237
28.78	233
28.79	244
28.8	290
28.81	238
28.82	250
28.83	248
28.84	254
28.85	244
28.86	257
28.87	291
28.88	233
28.89	253
28.9	272
28.91	225
28.92	230
28.93	236
28.94	243
28.95	241
28.96	269
28.97	232
28.98	269
28.99	236
29	229
29.01	233
29.02	241
29.03	232
29.04	243
29.05	255
29.06	222
29.07	244
29.08	241
29.09	226
29.1	253
29.11	253
29.12	256
29.13	232
29.14	235
29.15	239
29.16	214
29.17	247
29.18	257
29.19	240
29.2	265
29.21	242
29.22	228
29.23	262
29.24	237
29.25	248
29.26	263
29.27	248
29.28	254
29.29	294
29.3	296
29.31	280
29.32	288
29.33	291
29.34	278
29.35	297
29.36	254
29.37	301
29.38	267
29.39	263
29.4	269
29.41	299
29.42	281
29.43	297
29.44	258
29.45	273
29.46	284
29.47	268
29.48	283
29.49	277
29.5	255
29.51	264
29.52	276
29.53	231
29.54	276
29.55	276
29.56	262
29.57	257
29.58	249
29.59	223
29.6	268
29.61	269
29.62	244
29.63	246
29.64	238
29.65	207
29.66	272
29.67	257
29.68	243
29.69	242
29.7	252
29.71	245
29.72	232
29.73	253
29.74	234
29.75	240
29.76	246
29.77	205
29.78	255
29.79	245
29.8	261
29.81	230
29.82	258
29.83	248
29.84	241
29.85	213
29.86	232
29.87	262
29.88	247
29.89	259
29.9	220
29.91	245
29.92	214
29.93	248
29.94	287
29.95	215
29.96	264
29.97	245
29.98	279
29.99	229
30	254
30.01	243
30.02	247
30.03	241
30.04	227
30.05	213
30.06	238
30.07	210
30.08	239
30.09	229
30.1	264
30.11	242
30.12	242
30.13	239
30.14	240
30.15	256
30.16	228
30.17	241
30.18	261
30.19	243
30.2	263
30.21	230
30.22	250
30.23	251
30.24	215
30.25	235
30.26	241
30.27	243
30.28	224
30.29	249
30.3	259
30.31	230
30.32	256
30.33	223
30.34	231
30.35	224
30.36	261
30.37	223
30.38	230
30.39	240
30.4	238
30.41	248
30.42	248
30.43	222
30.44	267
30.45	239
30.46	276
30.47	232
30.48	278
30.49	231
30.5	230
30.51	258
30.52	249
30.53	268
30.54	243
30.55	223
30.56	267
30.57	262
30.58	257
30.59	251
30.6	282
30.61	241
30.62	229
30.63	245
30.64	239
30.65	228
30.66	232
30.67	238
30.68	264
30.69	239
30.7	251
30.71	255
30.72	261
30.73	257
30.74	250
30.75	273
30.76	257
30.77	252
30.78	234
30.79	247
30.8	248
30.81	234
30.82	251
30.83	238
30.84	276
30.85	268
30.86	265
30.87	259
30.88	263
30.89	267
30.9	237
30.91	250
30.92	248
30.93	249
30.94	244
30.95	264
30.96	261
30.97	273
30.98	264
30.99	244
31	245
31.01	241
31.02	238
31.03	252
31.04	240
31.05	263
31.06	293
31.07	276
31.08	258
31.09	264
31.1	191
31.11	236
31.12	308
31.13	228
31.14	258
31.15	266
31.16	274
31.17	248
31.18	264
31.19	271
31.2	245
31.21	258
31.22	256
31.23	254
31.24	273
31.25	240
31.26	262
31.27	262
31.28	275
31.29	272
31.3	265
31.31	277
31.32	264
31.33	266
31.34	251
31.35	266
31.36	228
31.37	257
31.38	271
31.39	247
31.4	239
31.41	248
31.42	244
31.43	262
31.44	227
31.45	251
31.46	258
31.47	267
31.48	256
31.49	284
31.5	261
31.51	265
31.52	230
31.53	254
31.54	242
31.55	240
31.56	239
31.57	236
31.58	253
31.59	277
31.6	272
31.61	251
31.62	244
31.63	251
31.64	270
31.65	261
31.66	252
31.67	283
31.68	258
31.69	246
31.7	278
31.71	263
31.72	233
31.73	294
31.74	265
31.75	276
31.76	306
31.77	248
31.78	260
31.79	267
31.8	277
31.81	264
31.82	275
31.83	256
31.84	264
31.85	268
31.86	272
31.87	269
31.88	249
31.89	238
31.9	273
31.91	254
31.92	215
31.93	248
31.94	253
31.95	271
31.96	266
31.97	236
31.98	249
31.99	240
32	304
32.01	241
32.02	235
32.03	246
32.04	228
32.05	255
32.06	245
32.07	247
32.08	262
32.09	262
32.1	248
32.11	277
32.12	226
32.13	251
32.14	264
32.15	243
32.16	286
32.17	213
32.18	241
32.19	236
32.2	243
32.21	250
32.22	225
32.23	254
32.24	256
32.25	279
32.26	263
32.27	265
32.28	272
32.29	224
32.3	236
32.31	246
32.32	237
32.33	249
32.34	242
32.35	260
32.36	269
32.37	248
32.38	237
32.39	243
32.4	275
32.41	246
32.42	223
32.43	263
32.44	234
32.45	225
32.46	241
32.47	258
32.48	260
32.49	254
32.5	221
32.51	266
32.52	240
32.53	253
32.54	270
32.55	270
32.56	232
32.57	223
32.58	251
32.59	264
32.6	239
32.61	270
32.62	275
32.63	271
32.64	271
32.65	268
32.66	231
32.67	282
32.68	240
32.69	243
32.7	232
32.71	237
32.72	244
32.73	268
32.74	227
32.75	256
32.76	235
32.77	269
32.78	249
32.79	278
32.8	223
32.81	261
32.82	243
32.83	266
32.84	261
32.85	268
32.86	273
32.87	244
32.88	259
32.89	265
32.9	266
32.91	265
32.92	292
32.93	260
32.94	266
32.95	291
32.96	276
32.97	271
32.98	279
32.99	237
33	282
33.01	259
33.02	249
33.03	277
33.04	313
33.05	267
33.06	240
33.07	264
33.08	249
33.09	278
33.1	257
33.11	285
33.12	269
33.13	247
33.14	279
33.15	252
33.16	261
33.17	259
33.18	261
33.19	276
33.2	262
33.21	244
33.22	281
33.23	291
33.24	296
33.25	277
33.26	261
33.27	270
33.28	263
33.29	287
33.3	275
33.31	270
33.32	288
33.33	287
33.34	291
33.35	291
33.36	300
33.37	315
33.38	311
33.39	337
33.4	338
33.41	300
33.42	306
33.43	316
33.44	332
33.45	291
33.46	321
33.47	301
33.48	331
33.49	323
33.5	284
33.51	309
33.52	284
33.53	263
33.54	272
33.55	311
33.56	281
33.57	275
33.58	283
33.59	269
33.6	279
33.61	270
33.62	282
33.63	297
33.64	282
33.65	271
33.66	252
33.67	223
33.68	284
33.69	273
33.7	262
33.71	277
33.72	257
33.73	279
33.74	247
33.75	257
33.76	274
33.77	269
33.78	293
33.79	268
33.8	260
33.81	252
33.82	298
33.83	282
33.84	279
33.85	282
33.86	282
33.87	280
33.88	304
33.89	302
33.9	302
33.91	297
33.92	266
33.93	320
33.94	292
33.95	296
33.96	288
33.97	274
33.98	289
33.99	299
34	270
34.01	293
34.02	294
34.03	258
34.04	260
34.05	264
34.06	240
34.07	278
34.08	249
34.09	275
34.1	251
34.11	264
34.12	262
34.13	239
34.14	272
34.15	250
34.16	239
34.17	255
34.18	242
34.19	247
34.2	239
34.21	251
34.22	228
34.23	263
34.24	246
34.25	269
34.26	256
34.27	237
34.28	236
34.29	253
34.3	257
34.31	251
34.32	256
34.33	238
34.34	245
34.35	222
34.36	253
34.37	245
34.38	258
34.39	232
34.4	236
34.41	281
34.42	254
34.43	254
34.44	267
34.45	247
34.46	256
34.47	244
34.48	241
34.49	248
34.5	259
34.51	261
34.52	242
34.53	270
34.54	256
34.55	254
34.56	247
34.57	242
34.58	240
34.59	247
34.6	236
34.61	275
34.62	227
34.63	277
34.64	256
34.65	246
34.66	252
34.67	226
34.68	230
34.69	254
34.7	229
34.71	235
34.72	237
34.73	228
34.74	257
34.75	229
34.76	253
34.77	270
34.78	252
34.79	257
34.8	248
34.81	251
34.82	259
34.83	218
34.84	227
34.85	270
34.86	277
34.87	260
34.88	231
34.89	265
34.9	275
34.91	267
34.92	244
34.93	264
34.94	242
34.95	235
34.96	250
34.97	234
34.98	237
34.99	231
35	241
35.01	274
35.02	255
35.03	267
35.04	242
35.05	267
35.06	256
35.07	233
35.08	244
35.09	252
35.1	273
35.11	248
35.12	249
35.13	265
35.14	255
35.15	251
35.16	270
35.17	264
35.18	232
35.19	234
35.2	241
35.21	261
35.22	255
35.23	235
35.24	254
35.25	292
35.26	235
35.27	239
35.28	256
35.29	263
35.3	246
35.31	254
35.32	214
35.33	256
35.34	254
35.35	260
35.36	227
35.37	229
35.38	242
35.39	227
35.4	257
35.41	251
35.42	259
35.43	241
35.44	252
35.45	237
35.46	251
35.47	275
35.48	240
35.49	247
35.5	247
35.51	256
35.52	231
35.53	241
35.54	260
35.55	249
35.56	239
35.57	244
35.58	255
35.59	239
35.6	257
35.61	275
35.62	245
35.63	278
35.64	236
35.65	241
35.66	260
35.67	225
35.68	263
35.69	257
35.7	245
35.71	250
35.72	245
35.73	251
35.74	245
35.75	249
35.76	239
35.77	280
35.78	237
35.79	245
35.8	256
35.81	244
35.82	231
35.83	223
35.84	243
35.85	219
35.86	243
35.87	224
35.88	246
35.89	231
35.9	220
35.91	212
35.92	243
35.93	232
35.94	233
35.95	261
35.96	235
35.97	240
35.98	214
35.99	255
36	226
36.01	235
36.02	235
36.03	221
36.04	248
36.05	240
36.06	244
36.07	261
36.08	247
36.09	257
36.1	236
36.11	243
36.12	228
36.13	251
36.14	229
36.15	233
36.16	223
36.17	220
36.18	240
36.19	207
36.2	236
36.21	248
36.22	227
36.23	225
36.24	252
36.25	252
36.26	272
36.27	233
36.28	213
36.29	233
36.3	217
36.31	261
36.32	248
36.33	254
36.34	230
36.35	210
36.36	241
36.37	205
36.38	211
36.39	233
36.4	250
36.41	237
36.42	246
36.43	221
36.44	233
36.45	230
36.46	250
36.47	267
36.48	244
36.49	242
36.5	252
36.51	227
36.52	238
36.53	212
36.54	243
36.55	222
36.56	227
36.57	218
36.58	258
36.59	243
36.6	256
36.61	230
36.62	213
36.63	254
36.64	242
36.65	217
36.66	235
36.67	256
36.68	210
36.69	254
36.7	247
36.71	243
36.72	217
36.73	233
36.74	243
36.75	216
36.76	232
36.77	246
36.78	240
36.79	209
36.8	234
36.81	250
36.82	227
36.83	222
36.84	223
36.85	207
36.86	253
36.87	242
36.88	199
36.89	210
36.9	216
36.91	241
36.92	240
36.93	236
36.94	236
36.95	274
36.96	248
36.97	227
36.98	242
36.99	226
37	217
37.01	218
37.02	233
37.03	224
37.04	241
37.05	241
37.06	235
37.07	239
37.08	244
37.09	236
37.1	223
37.11	221
37.12	233
37.13	244
37.14	244
37.15	240
37.16	245
37.17	252
37.18	299
37.19	246
37.2	227
37.21	259
37.22	261
37.23	256
37.24	265
37.25	274
37.26	238
37.27	241
37.28	256
37.29	255
37.3	254
37.31	243
37.32	217
37.33	248
37.34	245
37.35	223
37.36	239
37.37	237
37.38	216
37.39	224
37.4	206
37.41	238
37.42	257
37.43	248
37.44	254
37.45	218
37.46	234
37.47	224
37.48	216
37.49	230
37.5	234
37.51	236
37.52	245
37.53	244
37.54	230
37.55	241
37.56	232
37.57	255
37.58	243
37.59	214
37.6	211
37.61	258
37.62	236
37.63	229
37.64	257
37.65	234
37.66	213
37.67	253
37.68	217
37.69	212
37.7	219
37.71	218
37.72	206
37.73	229
37.74	251
37.75	234
37.76	211
37.77	230
37.78	224
37.79	217
37.8	241
37.81	214
37.82	220
37.83	205
37.84	205
37.85	204
37.86	239
37.87	228
37.88	250
37.89	250
37.9	225
37.91	220
37.92	237
37.93	229
37.94	197
37.95	236
37.96	237
37.97	235
37.98	245
37.99	226
38	236
38.01	211
38.02	230
38.03	254
38.04	231
38.05	237
38.06	250
38.07	233
38.08	231
38.09	230
38.1	247
38.11	266
38.12	235
38.13	225
38.14	256
38.15	254
38.16	250
38.17	254
38.18	250
38.19	274
38.2	300
38.21	269
38.22	297
38.23	314
38.24	308
38.25	307
38.26	349
38.27	347
38.28	364
38.29	408
38.3	398
38.31	457
38.32	514
38.33	557
38.34	545
38.35	612
38.36	674
38.37	688
38.38	748
38.39	762
38.4	870
38.41	975
38.42	924
38.43	910
38.44	907
38.45	903
38.46	913
38.47	847
38.48	815
38.49	785
38.5	751
38.51	746
38.52	635
38.53	663
38.54	590
38.55	518
38.56	532
38.57	488
38.58	461
38.59	444
38.6	361
38.61	395
38.62	336
38.63	320
38.64	287
38.65	277
38.66	270
38.67	277
38.68	280
38.69	259
38.7	247
38.71	219
38.72	232
38.73	253
38.74	257
38.75	254
38.76	209
38.77	216
38.78	229
38.79	218
38.8	240
38.81	219
38.82	223
38.83	211
38.84	236
38.85	240
38.86	211
38.87	234
38.88	221
38.89	237
38.9	224
38.91	234
38.92	214
38.93	193
38.94	243
38.95	213
38.96	238
38.97	215
38.98	223
38.99	227
39	204
39.01	230
39.02	229
39.03	220
39.04	213
39.05	219
39.06	231
39.07	192
39.08	226
39.09	211
39.1	214
39.11	244
39.12	230
39.13	224
39.14	233
39.15	229
39.16	247
39.17	235
39.18	204
39.19	200
39.2	207
39.21	237
39.22	190
39.23	248
39.24	214
39.25	222
39.26	219
39.27	214
39.28	223
39.29	209
39.3	218
39.31	218
39.32	224
39.33	220
39.34	205
39.35	233
39.36	235
39.37	227
39.38	200
39.39	206
39.4	257
39.41	219
39.42	174
39.43	227
39.44	213
39.45	240
39.46	199
39.47	216
39.48	241
39.49	235
39.5	232
39.51	227
39.52	226
39.53	212
39.54	235
39.55	233
39.56	202
39.57	217
39.58	227
39.59	234
39.6	232
39.61	218
39.62	201
39.63	212
39.64	216
39.65	196
39.66	213
39.67	202
39.68	237
39.69	228
39.7	208
39.71	228
39.72	192
39.73	203
39.74	203
39.75	220
39.76	211
39.77	238
39.78	195
39.79	241
39.8	202
39.81	185
39.82	223
39.83	197
39.84	211
39.85	212
39.86	185
39.87	236
39.88	222
39.89	188
39.9	203
39.91	200
39.92	206
39.93	213
39.94	190
39.95	210
39.96	230
39.97	219
39.98	237
39.99	208
40	202
40.01	205
40.02	209
40.03	216
40.04	226
40.05	214
40.06	190
40.07	209
40.08	209
40.09	239
40.1	185
40.11	225
40.12	219
40.13	227
40.14	222
40.15	232
40.16	202
40.17	239
40.18	248
40.19	214
40.2	212
40.21	218
40.22	205
40.23	200
40.24	212
40.25	228
40.26	203
40.27	201
40.28	220
40.29	232
40.3	181
40.31	205
40.32	199
40.33	191
40.34	210
40.35	184
40.36	206
40.37	188
40.38	199
40.39	203
40.4	181
40.41	209
40.42	202
40.43	222
40.44	222
40.45	192
40.46	214
40.47	184
40.48	229
40.49	189
40.5	182
40.51	201
40.52	212
40.53	192
40.54	214
40.55	195
40.56	208
40.57	198
40.58	205
40.59	207
40.6	203
40.61	222
40.62	215
40.63	217
40.64	208
40.65	207
40.66	187
40.67	201
40.68	227
40.69	214
40.7	205
40.71	207
40.72	216
40.73	215
40.74	199
40.75	214
40.76	209
40.77	178
40.78	189
40.79	243
40.8	189
40.81	177
40.82	195
40.83	220
40.84	212
40.85	200
40.86	220
40.87	199
40.88	201
40.89	201
40.9	201
40.91	204
40.92	199
40.93	222
40.94	190
40.95	180
40.96	206
40.97	203
40.98	216
40.99	200
41	206
41.01	219
41.02	217
41.03	180
41.04	223
41.05	205
41.06	205
41.07	190
41.08	179
41.09	187
41.1	207
41.11	179
41.12	211
41.13	183
41.14	207
41.15	187
41.16	199
41.17	213
41.18	217
41.19	181
41.2	213
41.21	203
41.22	199
41.23	181
41.24	198
41.25	195
41.26	174
41.27	184
41.28	220
41.29	202
41.3	214
41.31	201
41.32	188
41.33	187
41.34	172
41.35	189
41.36	219
41.37	189
41.38	194
41.39	181
41.4	182
41.41	199
41.42	208
41.43	178
41.44	189
41.45	213
41.46	163
41.47	174
41.48	197
41.49	202
41.5	210
41.51	218
41.52	226
41.53	181
41.54	186
41.55	203
41.56	166
41.57	196
41.58	173
41.59	201
41.6	187
41.61	184
41.62	198
41.63	193
41.64	192
41.65	204
41.66	186
41.67	198
41.68	166
41.69	202
41.7	182
41.71	189
41.72	191
41.73	173
41.74	206
41.75	172
41.76	171
41.77	175
41.78	195
41.79	188
41.8	175
41.81	184
41.82	184
41.83	229
41.84	196
41.85	202
41.86	208
41.87	192
41.88	191
41.89	213
41.9	197
41.91	187
41.92	180
41.93	179
41.94	195
41.95	207
41.96	183
41.97	210
41.98	199
41.99	202
42	196
42.01	205
42.02	185
42.03	186
42.04	191
42.05	194
42.06	191
42.07	188
42.08	188
42.09	182
42.1	191
42.11	199
42.12	192
42.13	202
42.14	212
42.15	171
42.16	187
42.17	169
42.18	180
42.19	203
42.2	191
42.21	169
42.22	206
42.23	192
42.24	190
42.25	185
42.26	181
42.27	218
42.28	189
42.29	185
42.3	186
42.31	196
42.32	167
42.33	186
42.34	194
42.35	187
42.36	176
42.37	183
42.38	170
42.39	182
42.4	182
42.41	199
42.42	207
42.43	177
42.44	174
42.45	175
42.46	195
42.47	189
42.48	180
42.49	158
42.5	173
42.51	204
42.52	201
42.53	197
42.54	203
42.55	201
42.56	156
42.57	169
42.58	177
42.59	162
42.6	183
42.61	176
42.62	173
42.63	202
42.64	179
42.65	183
42.66	192
42.67	180
42.68	206
42.69	171
42.7	178
42.71	182
42.72	198
42.73	175
42.74	178
42.75	160
42.76	186
42.77	207
42.78	164
42.79	181
42.8	212
42.81	180
42.82	178
42.83	203
42.84	180
42.85	200
42.86	180
42.87	182
42.88	173
42.89	209
42.9	177
42.91	182
42.92	211
42.93	190
42.94	174
42.95	189
42.96	212
42.97	175
42.98	184
42.99	170
43	223
43.01	199
43.02	187
43.03	163
43.04	178
43.05	179
43.06	198
43.07	206
43.08	210
43.09	185
43.1	190
43.11	199
43.12	179
43.13	195
43.14	202
43.15	195
43.16	192
43.17	193
43.18	189
43.19	167
43.2	185
43.21	187
43.22	167
43.23	193
43.24	200
43.25	196
43.26	203
43.27	183
43.28	194
43.29	214
43.3	178
43.31	178
43.32	178
43.33	184
43.34	197
43.35	151
43.36	161
43.37	183
43.38	159
43.39	193
43.4	190
43.41	195
43.42	161
43.43	166
43.44	189
43.45	172
43.46	173
43.47	173
43.48	196
43.49	185
43.5	188
43.51	179
43.52	176
43.53	182
43.54	166
43.55	178
43.56	197
43.57	173
43.58	180
43.59	184
43.6	193
43.61	186
43.62	194
43.63	180
43.64	182
43.65	162
43.66	187
43.67	187
43.68	156
43.69	154
43.7	177
43.71	186
43.72	179
43.73	184
43.74	171
43.75	189
43.76	210
43.77	184
43.78	193
43.79	171
43.8	200
43.81	175
43.82	174
43.83	185
43.84	187
43.85	185
43.86	171
43.87	163
43.88	173
43.89	195
43.9	174
43.91	161
43.92	170
43.93	172
43.94	208
43.95	175
43.96	184
43.97	161
43.98	187
43.99	174
44	179
44.01	171
44.02	177
44.03	155
44.04	196
44.05	208
44.06	182
44.07	198
44.08	209
44.09	203
44.1	197
44.11	215
44.12	202
44.13	249
44.14	214
44.15	188
44.16	220
44.17	228
44.18	209
44.19	190
44.2	219
44.21	211
44.22	208
44.23	190
44.24	215
44.25	211
44.26	206
44.27	182
44.28	203
44.29	186
44.3	215
44.31	205
44.32	212
44.33	194
44.34	194
44.35	196
44.36	196
44.37	220
44.38	204
44.39	234
44.4	198
44.41	202
44.42	216
44.43	217
44.44	238
44.45	239
44.46	224
44.47	282
44.48	249
44.49	275
44.5	294
44.51	302
44.52	324
44.53	322
44.54	339
44.55	400
44.56	386
44.57	414
44.58	431
44.59	455
44.6	426
44.61	465
44.62	537
44.63	532
44.64	534
44.65	563
44.66	527
44.67	548
44.68	585
44.69	568
44.7	514
44.71	556
44.72	463
44.73	504
44.74	500
44.75	455
44.76	448
44.77	446
44.78	437
44.79	446
44.8	366
44.81	374
44.82	377
44.83	331
44.84	299
44.85	296
44.86	276
44.87	251
44.88	268
44.89	269
44.9	270
44.91	256
44.92	181
44.93	207
44.94	188
44.95	192
44.96	183
44.97	202
44.98	238
44.99	172
45	191
45.01	195
45.02	169
45.03	198
45.04	172
45.05	199
45.06	183
45.07	194
45.08	174
45.09	163
45.1	197
45.11	157
45.12	180
45.13	168
45.14	165
45.15	154
45.16	182
45.17	178
45.18	172
45.19	156
45.2	171
45.21	159
45.22	172
45.23	156
45.24	187
45.25	190
45.26	187
45.27	159
45.28	184
45.29	164
45.3	175
45.31	166
45.32	208
45.33	187
45.34	199
45.35	178
45.36	174
45.37	176
45.38	162
45.39	167
45.4	183
45.41	188
45.42	165
45.43	149
45.44	165
45.45	198
45.46	167
45.47	174
45.48	184
45.49	166
45.5	171
45.51	191
45.52	151
45.53	208
45.54	165
45.55	159
45.56	162
45.57	168
45.58	158
45.59	186
45.6	166
45.61	173
45.62	186
45.63	162
45.64	164
45.65	163
45.66	185
45.67	202
45.68	163
45.69	174
45.7	184
45.71	169
45.72	159
45.73	173
45.74	172
45.75	192
45.76	137
45.77	158
45.78	178
45.79	158
45.8	153
45.81	160
45.82	170
45.83	171
45.84	189
45.85	173
45.86	161
45.87	163
45.88	167
45.89	151
45.9	168
45.91	150
45.92	171
45.93	156
45.94	155
45.95	175
45.96	174
45.97	163
45.98	179
45.99	169
46	155
46.01	171
46.02	157
46.03	185
46.04	172
46.05	151
46.06	154
46.07	150
46.08	152
46.09	152
46.1	172
46.11	163
46.12	168
46.13	171
46.14	149
46.15	157
46.16	149
46.17	161
46.18	148
46.19	161
46.2	162
46.21	156
46.22	161
46.23	172
46.24	176
46.25	173
46.26	154
46.27	150
46.28	163
46.29	165
46.3	167
46.31	151
46.32	151
46.33	177
46.34	167
46.35	156
46.36	141
46.37	149
46.38	158
46.39	176
46.4	151
46.41	186
46.42	151
46.43	164
46.44	153
46.45	180
46.46	162
46.47	136
46.48	179
46.49	166
46.5	161
46.51	145
46.52	150
46.53	149
46.54	146
46.55	162
46.56	139
46.57	155
46.58	159
46.59	143
46.6	164
46.61	148
46.62	135
46.63	188
46.64	146
46.65	169
46.66	161
46.67	151
46.68	151
46.69	172
46.7	146
46.71	154
46.72	175
46.73	155
46.74	178
46.75	173
46.76	137
46.77	162
46.78	160
46.79	154
46.8	152
46.81	149
46.82	160
46.83	169
46.84	157
46.85	147
46.86	159
46.87	154
46.88	152
46.89	142
46.9	148
46.91	169
46.92	164
46.93	152
46.94	153
46.95	145
46.96	177
46.97	166
46.98	166
46.99	141
47	148
47.01	162
47.02	159
47.03	154
47.04	171
47.05	163
47.06	170
47.07	164
47.08	161
47.09	165
47.1	139
47.11	139
47.12	157
47.13	153
47.14	158
47.15	158
47.16	136
47.17	161
47.18	141
47.19	152
47.2	155
47.21	159
47.22	135
47.23	169
47.24	130
47.25	146
47.26	160
47.27	138
47.28	156
47.29	142
47.3	150
47.31	140
47.32	141
47.33	158
47.34	151
47.35	165
47.36	145
47.37	139
47.38	169
47.39	137
47.4	155
47.41	148
47.42	163
47.43	153
47.44	136
47.45	141
47.46	162
47.47	157
47.48	149
47.49	155
47.5	146
47.51	141
47.52	149
47.53	144
47.54	153
47.55	158
47.56	154
47.57	153
47.58	137
47.59	137
47.6	141
47.61	172
47.62	147
47.63	144
47.64	144
47.65	148
47.66	185
47.67	165
47.68	149
47.69	154
47.7	166
47.71	158
47.72	181
47.73	159
47.74	151
47.75	139
47.76	168
47.77	131
47.78	152
47.79	159
47.8	123
47.81	143
47.82	145
47.83	127
47.84	146
47.85	167
47.86	142
47.87	151
47.88	140
47.89	145
47.9	149
47.91	153
47.92	141
47.93	181
47.94	157
47.95	147
47.96	131
47.97	162
47.98	162
47.99	158
48	152
48.01	151
48.02	161
48.03	152
48.04	147
48.05	141
48.06	141
48.07	164
48.08	161
48.09	135
48.1	140
48.11	170
48.12	162
48.13	154
48.14	141
48.15	133
48.16	160
48.17	164
48.18	153
48.19	164
48.2	152
48.21	151
48.22	139
48.23	162
48.24	147
48.25	169
48.26	166
48.27	154
48.28	142
48.29	158
48.3	160
48.31	156
48.32	162
48.33	143
48.34	146
48.35	133
48.36	145
48.37	123
48.38	166
48.39	163
48.4	142
48.41	140
48.42	158
48.43	150
48.44	133
48.45	161
48.46	145
48.47	144
48.48	154
48.49	151
48.5	152
48.51	158
48.52	148
48.53	171
48.54	159
48.55	144
48.56	155
48.57	148
48.58	141
48.59	133
48.6	148
48.61	155
48.62	150
48.63	166
48.64	144
48.65	154
48.66	143
48.67	131
48.68	135
48.69	163
48.7	143
48.71	138
48.72	141
48.73	137
48.74	143
48.75	176
48.76	133
48.77	145
48.78	135
48.79	142
48.8	135
48.81	135
48.82	128
48.83	138
48.84	162
48.85	143
48.86	130
48.87	151
48.88	159
48.89	164
48.9	122
48.91	152
48.92	145
48.93	144
48.94	139
48.95	133
48.96	176
48.97	151
48.98	147
48.99	146
49	126
49.01	159
49.02	155
49.03	127
49.04	129
49.05	169
49.06	131
49.07	130
49.08	140
49.09	132
49.1	138
49.11	113
49.12	142
49.13	129
49.14	132
49.15	139
49.16	148
49.17	115
49.18	144
49.19	120
49.2	140
49.21	128
49.22	141
49.23	158
49.24	149
49.25	137
49.26	128
49.27	137
49.28	126
49.29	125
49.3	138
49.31	132
49.32	150
49.33	152
49.34	151
49.35	124
49.36	152
49.37	143
49.38	136
49.39	124
49.4	163
49.41	147
49.42	142
49.43	135
49.44	157
49.45	144
49.46	142
49.47	128
49.48	141
49.49	126
49.5	121
49.51	140
49.52	149
49.53	131
49.54	153
49.55	130
49.56	124
49.57	109
49.58	125
49.59	137
49.6	129
49.61	132
49.62	148
49.63	125
49.64	131
49.65	113
49.66	150
49.67	125
49.68	136
49.69	132
49.7	142
49.71	147
49.72	130
49.73	134
49.74	139
49.75	134
49.76	119
49.77	147
49.78	169
49.79	143
49.8	150
49.81	155
49.82	134
49.83	130
49.84	126
49.85	119
49.86	143
49.87	131
49.88	131
49.89	134
49.9	154
49.91	139
49.92	139
49.93	144
49.94	135
49.95	139
49.96	118
49.97	149
49.98	134
49.99	149
50	129
50.01	123
50.02	135
50.03	147
50.04	157
50.05	140
50.06	122
50.07	147
50.08	141
50.09	143
50.1	137
50.11	130
50.12	123
50.13	134
50.14	132
50.15	135
50.16	125
50.17	140
50.18	136
50.19	138
50.2	110
50.21	137
50.22	145
50.23	118
50.24	113
50.25	129
50.26	146
50.27	124
50.28	123
50.29	138
50.3	134
50.31	103
50.32	146
50.33	123
50.34	142
50.35	117
50.36	125
50.37	127
50.38	137
50.39	111
50.4	133
50.41	148
50.42	147
50.43	134
50.44	118
50.45	112
50.46	139
50.47	140
50.48	136
50.49	126
50.5	134
50.51	122
50.52	144
50.53	112
50.54	134
50.55	136
50.56	118
50.57	130
50.58	149
50.59	142
50.6	137
50.61	154
50.62	139
50.63	130
50.64	137
50.65	123
50.66	152
50.67	154
50.68	144
50.69	131
50.7	118
50.71	143
50.72	148
50.73	129
50.74	123
50.75	137
50.76	130
50.77	131
50.78	145
50.79	118
50.8	97
50.81	136
50.82	136
50.83	132
50.84	106
50.85	131
50.86	126
50.87	126
50.88	138
50.89	128
50.9	129
50.91	137
50.92	145
50.93	139
50.94	122
50.95	146
50.96	134
50.97	116
50.98	126
50.99	130
51	136
51.01	127
51.02	148
51.03	161
51.04	131
51.05	130
51.06	134
51.07	149
51.08	129
51.09	122
51.1	130
51.11	121
51.12	118
51.13	130
51.14	129
51.15	111
51.16	123
51.17	133
51.18	125
51.19	141
51.2	148
51.21	136
51.22	130
51.23	134
51.24	127
51.25	114
51.26	141
51.27	151
51.28	128
51.29	115
51.3	139
51.31	126
51.32	127
51.33	122
51.34	131
51.35	117
51.36	97
51.37	129
51.38	115
51.39	114
51.4	126
51.41	143
51.42	143
51.43	117
51.44	145
51.45	142
51.46	111
51.47	130
51.48	130
51.49	107
51.5	123
51.51	123
51.52	150
51.53	119
51.54	146
51.55	138
51.56	118
51.57	135
51.58	134
51.59	128
51.6	104
51.61	110
51.62	118
51.63	135
51.64	120
51.65	123
51.66	109
51.67	146
51.68	114
51.69	147
51.7	135
51.71	142
51.72	141
51.73	133
51.74	119
51.75	149
51.76	113
51.77	133
51.78	130
51.79	108
51.8	125
51.81	134
51.82	116
51.83	118
51.84	145
51.85	131
51.86	119
51.87	128
51.88	109
51.89	130
51.9	134
51.91	127
51.92	115
51.93	132
51.94	130
51.95	113
51.96	121
51.97	156
51.98	112
51.99	115
52	137
52.01	142
52.02	122
52.03	127
52.04	113
52.05	103
52.06	129
52.07	133
52.08	136
52.09	113
52.1	110
52.11	110
52.12	114
52.13	124
52.14	125
52.15	106
52.16	109
52.17	122
52.18	117
52.19	104
52.2	121
52.21	128
52.22	130
52.23	117
52.24	116
52.25	107
52.26	131
52.27	133
52.28	133
52.29	130
52.3	102
52.31	138
52.32	138
52.33	143
52.34	142
52.35	119
52.36	100
52.37	134
52.38	124
52.39	108
52.4	116
52.41	122
52.42	122
52.43	128
52.44	129
52.45	140
52.46	133
52.47	124
52.48	114
52.49	142
52.5	140
52.51	130
52.52	131
52.53	119
52.54	120
52.55	125
52.56	129
52.57	111
52.58	110
52.59	119
52.6	111
52.61	107
52.62	124
52.63	140
52.64	130
52.65	132
52.66	128
52.67	127
52.68	141
52.69	116
52.7	116
52.71	109
52.72	100
52.73	109
52.74	116
52.75	123
52.76	106
52.77	108
52.78	135
52.79	140
52.8	121
52.81	103
52.82	127
52.83	141
52.84	109
52.85	116
52.86	120
52.87	117
52.88	132
52.89	111
52.9	111
52.91	113
52.92	137
52.93	108
52.94	116
52.95	106
52.96	117
52.97	132
52.98	122
52.99	126
53	120
53.01	110
53.02	118
53.03	107
53.04	134
53.05	112
53.06	110
53.07	126
53.08	132
53.09	126
53.1	112
53.11	127
53.12	135
53.13	132
53.14	126
53.15	130
53.16	115
53.17	124
53.18	123
53.19	119
53.2	115
53.21	103
53.22	130
53.23	113
53.24	126
53.25	125
53.26	140
53.27	130
53.28	133
53.29	121
53.3	129
53.31	127
53.32	115
53.33	100
53.34	128
53.35	121
53.36	129
53.37	128
53.38	114
53.39	118
53.4	122
53.41	125
53.42	91
53.43	122
53.44	129
53.45	118
53.46	132
53.47	142
53.48	115
53.49	128
53.5	120
53.51	137
53.52	115
53.53	112
53.54	126
53.55	113
53.56	136
53.57	104
53.58	109
53.59	121
53.6	113
53.61	109
53.62	123
53.63	120
53.64	122
53.65	130
53.66	118
53.67	114
53.68	101
53.69	124
53.7	121
53.71	110
53.72	101
53.73	130
53.74	103
53.75	120
53.76	134
53.77	111
53.78	122
53.79	128
53.8	112
53.81	125
53.82	126
53.83	116
53.84	114
53.85	113
53.86	110
53.87	120
53.88	112
53.89	119
53.9	129
53.91	122
53.92	125
53.93	135
53.94	119
53.95	126
53.96	119
53.97	132
53.98	106
53.99	117
54	120
54.01	127
54.02	123
54.03	106
54.04	109
54.05	108
54.06	122
54.07	133
54.08	129
54.09	109
54.1	108
54.11	137
54.12	131
54.13	120
54.14	124
54.15	110
54.16	119
54.17	126
54.18	113
54.19	111
54.2	128
54.21	107
54.22	125
54.23	116
54.24	122
54.25	126
54.26	124
54.27	107
54.28	117
54.29	108
54.3	135
54.31	122
54.32	122
54.33	111
54.34	104
54.35	118
54.36	95
54.37	112
54.38	134
54.39	122
54.4	120
54.41	111
54.42	107
54.43	125
54.44	133
54.45	118
54.46	122
54.47	119
54.48	112
54.49	128
54.5	124
54.51	128
54.52	113
54.53	123
54.54	122
54.55	108
54.56	107
54.57	131
54.58	127
54.59	111
54.6	95
54.61	96
54.62	127
54.63	135
54.64	115
54.65	96
54.66	133
54.67	98
54.68	107
54.69	104
54.7	116
54.71	87
54.72	125
54.73	118
54.74	112
54.75	95
54.76	135
54.77	93
54.78	121
54.79	108
54.8	94
54.81	114
54.82	97
54.83	115
54.84	119
54.85	121
54.86	102
54.87	97
54.88	105
54.89	97
54.9	116
54.91	102
54.92	113
54.93	118
54.94	114
54.95	121
54.96	107
54.97	115
54.98	102
54.99	105
55	107
55.01	115
55.02	122
55.03	102
55.04	115
55.05	123
55.06	99
55.07	114
55.08	116
55.09	113
55.1	103
55.11	107
55.12	98
55.13	108
55.14	109
55.15	99
55.16	99
55.17	115
55.18	104
55.19	108
55.2	112
55.21	111
55.22	111
55.23	114
55.24	106
55.25	118
55.26	97
55.27	96
55.28	107
55.29	107
55.3	115
55.31	101
55.32	119
55.33	101
55.34	111
55.35	103
55.36	106
55.37	104
55.38	89
55.39	101
55.4	107
55.41	106
55.42	134
55.43	111
55.44	100
55.45	118
55.46	107
55.47	102
55.48	120
55.49	125
55.5	98
55.51	107
55.52	109
55.53	96
55.54	120
55.55	97
55.56	105
55.57	120
55.58	110
55.59	102
55.6	103
55.61	119
55.62	113
55.63	111
55.64	112
55.65	88
55.66	91
55.67	107
55.68	94
55.69	94
55.7	107
55.71	115
55.72	86
55.73	106
55.74	106
55.75	108
55.76	111
55.77	99
55.78	100
55.79	113
55.8	105
55.81	104
55.82	115
55.83	110
55.84	101
55.85	127
55.86	102
55.87	104
55.88	99
55.89	97
55.9	93
55.91	105
55.92	122
55.93	97
55.94	101
55.95	89
55.96	96
55.97	106
55.98	105
55.99	103
56	113
56.01	111
56.02	115
56.03	94
56.04	117
56.05	102
56.06	110
56.07	87
56.08	116
56.09	98
56.1	90
56.11	98
56.12	110
56.13	103
56.14	103
56.15	107
56.16	108
56.17	130
56.18	98
56.19	106
56.2	78
56.21	108
56.22	115
56.23	100
56.24	118
56.25	90
56.26	107
56.27	102
56.28	110
56.29	118
56.3	101
56.31	100
56.32	107
56.33	94
56.34	99
56.35	94
56.36	109
56.37	108
56.38	104
56.39	97
56.4	125
56.41	80
56.42	87
56.43	103
56.44	114
56.45	108
56.46	92
56.47	103
56.48	92
56.49	107
56.5	94
56.51	90
56.52	111
56.53	92
56.54	124
56.55	97
56.56	94
56.57	96
56.58	97
56.59	86
56.6	108
56.61	86
56.62	104
56.63	134
56.64	99
56.65	117
56.66	103
56.67	101
56.68	96
56.69	91
56.7	123
56.71	114
56.72	95
56.73	106
56.74	101
56.75	104
56.76	99
56.77	105
56.78	114
56.79	104
56.8	92
56.81	94
56.82	93
56.83	89
56.84	104
56.85	109
56.86	97
56.87	112
56.88	104
56.89	90
56.9	90
56.91	84
56.92	77
56.93	100
56.94	90
56.95	95
56.96	91
56.97	96
56.98	96
56.99	88
57	97
57.01	98
57.02	98
57.03	94
57.04	98
57.05	107
57.06	93
57.07	92
57.08	114
57.09	102
57.1	98
57.11	74
57.12	79
57.13	109
57.14	96
57.15	111
57.16	90
57.17	99
57.18	109
57.19	95
57.2	101
57.21	95
57.22	93
57.23	110
57.24	104
57.25	117
57.26	114
57.27	119
57.28	91
57.29	85
57.3	97
57.31	107
57.32	114
57.33	98
57.34	96
57.35	94
57.36	96
57.37	92
57.38	85
57.39	93
57.4	85
57.41	87
57.42	82
57.43	91
57.44	88
57.45	90
57.46	113
57.47	106
57.48	88
57.49	78
57.5	116
57.51	100
57.52	93
57.53	104
57.54	109
57.55	108
57.56	102
57.57	104
57.58	106
57.59	89
57.6	101
57.61	105
57.62	86
57.63	98
57.64	109
57.65	115
57.66	112
57.67	90
57.68	92
57.69	101
57.7	93
57.71	93
57.72	115
57.73	97
57.74	100
57.75	94
57.76	106
57.77	98
57.78	88
57.79	98
57.8	98
57.81	102
57.82	82
57.83	106
57.84	98
57.85	100
57.86	103
57.87	80
57.88	104
57.89	97
57.9	95
57.91	100
57.92	100
57.93	85
57.94	94
57.95	84
57.96	90
57.97	86
57.98	99
57.99	117
58	107
58.01	84
58.02	85
58.03	97
58.04	83
58.05	98
58.06	107
58.07	99
58.08	96
58.09	85
58.1	94
58.11	103
58.12	95
58.13	102
58.14	81
58.15	95
58.16	85
58.17	89
58.18	95
58.19	96
58.2	90
58.21	75
58.22	90
58.23	98
58.24	85
58.25	90
58.26	94
58.27	98
58.28	102
58.29	102
58.3	95
58.31	99
58.32	86
58.33	97
58.34	100
58.35	90
58.36	84
58.37	104
58.38	87
58.39	95
58.4	89
58.41	79
58.42	82
58.43	96
58.44	90
58.45	91
58.46	114
58.47	96
58.48	79
58.49	88
58.5	80
58.51	92
58.52	109
58.53	95
58.54	102
58.55	105
58.56	85
58.57	100
58.58	94
58.59	94
58.6	90
58.61	72
58.62	91
58.63	95
58.64	100
58.65	108
58.66	84
58.67	100
58.68	89
58.69	88
58.7	72
58.71	91
58.72	95
58.73	98
58.74	91
58.75	100
58.76	93
58.77	95
58.78	89
58.79	88
58.8	92
58.81	83
58.82	89
58.83	87
58.84	111
58.85	94
58.86	82
58.87	82
58.88	90
58.89	90
58.9	103
58.91	72
58.92	88
58.93	79
58.94	95
58.95	99
58.96	86
58.97	95
58.98	87
58.99	82
59	83
59.01	90
59.02	90
59.03	87
59.04	91
59.05	94
59.06	82
59.07	104
59.08	108
59.09	87
59.1	88
59.11	87
59.12	91
59.13	85
59.14	109
59.15	87
59.16	75
59.17	111
59.18	96
59.19	90
59.2	82
59.21	94
59.22	90
59.23	93
59.24	98
59.25	86
59.26	95
59.27	83
59.28	85
59.29	84
59.3	85
59.31	111
59.32	81
59.33	107
59.34	96
59.35	88
59.36	92
59.37	84
59.38	88
59.39	87
59.4	87
59.41	93
59.42	87
59.43	75
59.44	89
59.45	86
59.46	98
59.47	90
59.48	90
59.49	98
59.5	83
59.51	91
59.52	87
59.53	90
59.54	82
59.55	89
59.56	72
59.57	98
59.58	91
59.59	99
59.6	95
59.61	91
59.62	98
59.63	67
59.64	98
59.65	90
59.66	86
59.67	88
59.68	92
59.69	92
59.7	99
59.71	87
59.72	75
59.73	90
59.74	88
59.75	90
59.76	114
59.77	86
59.78	83
59.79	83
59.8	86
59.81	94
59.82	84
59.83	80
59.84	84
59.85	98
59.86	97
59.87	94
59.88	90
59.89	77
59.9	93
59.91	89
59.92	86
59.93	87
59.94	107
59.95	95
59.96	98
59.97	83
59.98	98
59.99	82
60	91
60.01	96
60.02	66
60.03	87
60.04	94
60.05	90
60.06	81
60.07	89
60.08	79
60.09	93
60.1	86
60.11	86
60.12	77
60.13	88
60.14	91
60.15	88
60.16	89
60.17	101
60.18	101
60.19	87
60.2	83
60.21	89
60.22	91
60.23	72
60.24	73
60.25	90
60.26	102
60.27	63
60.28	100
60.29	74
60.3	81
60.31	88
60.32	77
60.33	100
60.34	86
60.35	84
60.36	87
60.37	108
60.38	92
60.39	84
60.4	82
60.41	80
60.42	105
60.43	99
60.44	75
60.45	85
60.46	93
60.47	77
60.48	70
60.49	85
60.5	88
60.51	88
60.52	87
60.53	108
60.54	68
60.55	76
60.56	68
60.57	83
60.58	92
60.59	96
60.6	83
60.61	78
60.62	89
60.63	90
60.64	81
60.65	98
60.66	78
60.67	74
60.68	84
60.69	86
60.7	89
60.71	86
60.72	91
60.73	75
60.74	89
60.75	96
60.76	87
60.77	96
60.78	88
60.79	88
60.8	91
60.81	77
60.82	83
60.83	54
60.84	80
60.85	95
60.86	67
60.87	77
60.88	83
60.89	82
60.9	84
60.91	94
60.92	94
60.93	95
60.94	99
60.95	89
60.96	80
60.97	79
60.98	82
60.99	77
61	79
61.01	89
61.02	77
61.03	103
61.04	95
61.05	84
61.06	85
61.07	70
61.08	101
61.09	89
61.1	84
61.11	80
61.12	71
61.13	79
61.14	93
61.15	80
61.16	68
61.17	83
61.18	84
61.19	80
61.2	106
61.21	79
61.22	62
61.23	78
61.24	96
61.25	78
61.26	78
61.27	87
61.28	86
61.29	100
61.3	86
61.31	93
61.32	86
61.33	84
61.34	86
61.35	92
61.36	85
61.37	78
61.38	85
61.39	79
61.4	102
61.41	71
61.42	88
61.43	89
61.44	93
61.45	85
61.46	74
61.47	73
61.48	72
61.49	86
61.5	64
61.51	84
61.52	84
61.53	87
61.54	64
61.55	82
61.56	75
61.57	86
61.58	66
61.59	70
61.6	86
61.61	83
61.62	78
61.63	63
61.64	81
61.65	78
61.66	67
61.67	75
61.68	86
61.69	88
61.7	76
61.71	54
61.72	75
61.73	74
61.74	85
61.75	76
61.76	81
61.77	92
61.78	85
61.79	90
61.8	93
61.81	60
61.82	74
61.83	65
61.84	92
61.85	78
61.86	100
61.87	84
61.88	61
61.89	94
61.9	83
61.91	76
61.92	71
61.93	79
61.94	77
61.95	73
61.96	90
61.97	81
61.98	62
61.99	85
62	95
62.01	83
62.02	76
62.03	87
62.04	74
62.05	100
62.06	90
62.07	92
62.08	79
62.09	81
62.1	83
62.11	82
62.12	80
62.13	82
62.14	86
62.15	84
62.16	83
62.17	90
62.18	65
62.19	82
62.2	85
62.21	86
62.22	92
62.23	78
62.24	77
62.25	91
62.26	77
62.27	90
62.28	65
62.29	88
62.3	67
62.31	82
62.32	89
62.33	81
62.34	68
62.35	95
62.36	80
62.37	79
62.38	79
62.39	99
62.4	83
62.41	80
62.42	90
62.43	63
62.44	75
62.45	91
62.46	65
62.47	73
62.48	69
62.49	72
62.5	83
62.51	80
62.52	82
62.53	77
62.54	84
62.55	84
62.56	87
62.57	84
62.58	74
62.59	80
62.6	80
62.61	78
62.62	93
62.63	59
62.64	85
62.65	67
62.66	75
62.67	75
62.68	73
62.69	73
62.7	82
62.71	74
62.72	66
62.73	77
62.74	79
62.75	66
62.76	83
62.77	78
62.78	81
62.79	71
62.8	97
62.81	81
62.82	77
62.83	69
62.84	65
62.85	82
62.86	82
62.87	86
62.88	63
62.89	85
62.9	78
62.91	82
62.92	80
62.93	80
62.94	70
62.95	68
62.96	75
62.97	71
62.98	89
62.99	73
63	73
63.01	90
63.02	86
63.03	82
63.04	73
63.05	74
63.06	87
63.07	86
63.08	74
63.09	67
63.1	78
63.11	79
63.12	78
63.13	76
63.14	75
63.15	90
63.16	82
63.17	78
63.18	89
63.19	65
63.2	80
63.21	93
63.22	86
63.23	79
63.24	73
63.25	79
63.26	70
63.27	77
63.28	89
63.29	83
63.3	88
63.31	83
63.32	79
63.33	72
63.34	90
63.35	77
63.36	79
63.37	98
63.38	87
63.39	78
63.4	66
63.41	82
63.42	66
63.43	80
63.44	81
63.45	71
63.46	67
63.47	104
63.48	81
63.49	69
63.5	78
63.51	78
63.52	84
63.53	75
63.54	74
63.55	88
63.56	85
63.57	68
63.58	76
63.59	81
63.6	78
63.61	72
63.62	87
63.63	85
63.64	81
63.65	54
63.66	60
63.67	91
63.68	78
63.69	82
63.7	76
63.71	75
63.72	71
63.73	85
63.74	80
63.75	88
63.76	69
63.77	82
63.78	94
63.79	74
63.8	79
63.81	75
63.82	85
63.83	74
63.84	64
63.85	82
63.86	77
63.87	61
63.88	65
63.89	85
63.9	69
63.91	73
63.92	72
63.93	69
63.94	74
63.95	83
63.96	88
63.97	77
63.98	75
63.99	89
64	74
64.01	72
64.02	77
64.03	75
64.04	84
64.05	78
64.06	69
64.07	71
64.08	74
64.09	77
64.1	85
64.11	71
64.12	85
64.13	69
64.14	68
64.15	76
64.16	71
64.17	65
64.18	68
64.19	82
64.2	68
64.21	90
64.22	83
64.23	77
64.24	85
64.25	75
64.26	70
64.27	85
64.28	81
64.29	80
64.3	77
64.31	73
64.32	65
64.33	80
64.34	76
64.35	61
64.36	72
64.37	77
64.38	55
64.39	65
64.4	66
64.41	86
64.42	68
64.43	81
64.44	79
64.45	69
64.46	83
64.47	80
64.48	59
64.49	103
64.5	79
64.51	73
64.52	78
64.53	84
64.54	65
64.55	73
64.56	93
64.57	73
64.58	80
64.59	62
64.6	75
64.61	81
64.62	76
64.63	94
64.64	83
64.65	79
64.66	77
64.67	79
64.68	86
64.69	79
64.7	70
64.71	85
64.72	76
64.73	88
64.74	80
64.75	70
64.76	76
64.77	86
64.78	85
64.79	87
64.8	82
64.81	69
64.82	62
64.83	85
64.84	74
64.85	70
64.86	90
64.87	73
64.88	93
64.89	71
64.9	80
64.91	90
64.92	88
64.93	108
64.94	102
64.95	97
64.96	110
64.97	108
64.98	109
64.99	113
65	102
65.01	95
65.02	123
65.03	113
65.04	131
65.05	109
65.06	117
65.07	121
65.08	121
65.09	121
65.1	120
65.11	126
65.12	116
65.13	94
65.14	129
65.15	128
65.16	102
65.17	132
65.18	120
65.19	115
65.2	94
65.21	100
65.22	126
65.23	115
65.24	98
65.25	121
65.26	103
65.27	102
65.28	98
65.29	101
65.3	90
65.31	99
65.32	101
65.33	84
65.34	83
65.35	99
65.36	80
65.37	82
65.38	93
65.39	87
65.4	92
65.41	80
65.42	79
65.43	71
65.44	79
65.45	66
65.46	76
65.47	85
65.48	71
65.49	61
65.5	61
65.51	75
65.52	85
65.53	77
65.54	75
65.55	75
65.56	59
65.57	71
65.58	62
65.59	84
65.6	56
65.61	73
65.62	79
65.63	56
65.64	81
65.65	72
65.66	70
65.67	78
65.68	63
65.69	94
65.7	74
65.71	55
65.72	72
65.73	78
65.74	67
65.75	72
65.76	77
65.77	71
65.78	74
65.79	74
65.8	77
65.81	82
65.82	68
65.83	67
65.84	85
65.85	80
65.86	63
65.87	69
65.88	75
65.89	76
65.9	76
65.91	70
65.92	75
65.93	75
65.94	69
65.95	77
65.96	63
65.97	75
65.98	66
65.99	79
66	81
66.01	84
66.02	79
66.03	62
66.04	86
66.05	68
66.06	79
66.07	65
66.08	82
66.09	77
66.1	65
66.11	72
66.12	77
66.13	75
66.14	64
66.15	59
66.16	76
66.17	62
66.18	62
66.19	69
66.2	78
66.21	74
66.22	70
66.23	72
66.24	74
66.25	75
66.26	62
66.27	90
66.28	71
66.29	66
66.3	68
66.31	74
66.32	60
66.33	81
66.34	73
66.35	54
66.36	71
66.37	74
66.38	76
66.39	55
66.4	75
66.41	67
66.42	64
66.43	73
66.44	64
66.45	68
66.46	67
66.47	60
66.48	68
66.49	73
66.5	70
66.51	73
66.52	65
66.53	78
66.54	65
66.55	83
66.56	77
66.57	61
66.58	70
66.59	71
66.6	67
66.61	76
66.62	73
66.63	89
66.64	62
66.65	71
66.66	77
66.67	68
66.68	76
66.69	66
66.7	54
66.71	58
66.72	72
66.73	92
66.74	64
66.75	88
66.76	80
66.77	69
66.78	73
66.79	68
66.8	72
66.81	80
66.82	64
66.83	66
66.84	70
66.85	76
66.86	69
66.87	70
66.88	59
66.89	72
66.9	67
66.91	66
66.92	56
66.93	67
66.94	65
66.95	69
66.96	80
66.97	66
66.98	74
66.99	67
67	64
67.01	54
67.02	92
67.03	78
67.04	75
67.05	71
67.06	60
67.07	67
67.08	61
67.09	66
67.1	70
67.11	57
67.12	73
67.13	60
67.14	69
67.15	68
67.16	74
67.17	73
67.18	71
67.19	68
67.2	78
67.21	76
67.22	56
67.23	85
67.24	81
67.25	71
67.26	65
67.27	80
67.28	61
67.29	63
67.3	68
67.31	74
67.32	74
67.33	75
67.34	74
67.35	73
67.36	66
67.37	81
67.38	88
67.39	56
67.4	70
67.41	55
67.42	82
67.43	61
67.44	73
67.45	73
67.46	71
67.47	60
67.48	63
67.49	69
67.5	69
67.51	66
67.52	67
67.53	76
67.54	60
67.55	71
67.56	71
67.57	83
67.58	68
67.59	74
67.6	62
67.61	75
67.62	72
67.63	63
67.64	60
67.65	69
67.66	83
67.67	70
67.68	63
67.69	86
67.7	71
67.71	69
67.72	72
67.73	77
67.74	77
67.75	60
67.76	72
67.77	71
67.78	68
67.79	83
67.8	65
67.81	71
67.82	87
67.83	83
67.84	60
67.85	68
67.86	63
67.87	76
67.88	71
67.89	69
67.9	63
67.91	64
67.92	70
67.93	83
67.94	62
67.95	80
67.96	57
67.97	69
67.98	57
67.99	65
68	62
68.01	66
68.02	62
68.03	68
68.04	86
68.05	58
68.06	75
68.07	53
68.08	70
68.09	79
68.1	71
68.11	54
68.12	80
68.13	76
68.14	74
68.15	64
68.16	75
68.17	77
68.18	61
68.19	61
68.2	74
68.21	65
68.22	76
68.23	61
68.24	83
68.25	76
68.26	85
68.27	73
68.28	59
68.29	58
68.3	65
68.31	77
68.32	71
68.33	57
68.34	66
68.35	77
68.36	65
68.37	66
68.38	60
68.39	47
68.4	57
68.41	53
68.42	68
68.43	78
68.44	54
68.45	66
68.46	60
68.47	68
68.48	68
68.49	57
68.5	67
68.51	65
68.52	71
68.53	69
68.54	74
68.55	67
68.56	62
68.57	53
68.58	54
68.59	77
68.6	56
68.61	71
68.62	69
68.63	62
68.64	79
68.65	70
68.66	65
68.67	73
68.68	71
68.69	67
68.7	69
68.71	60
68.72	73
68.73	66
68.74	59
68.75	74
68.76	62
68.77	55
68.78	61
68.79	61
68.8	68
68.81	64
68.82	73
68.83	56
68.84	84
68.85	54
68.86	71
68.87	63
68.88	82
68.89	62
68.9	56
68.91	71
68.92	63
68.93	80
68.94	81
68.95	69
68.96	62
68.97	68
68.98	71
68.99	72
69	77
69.01	86
69.02	58
69.03	67
69.04	72
69.05	69
69.06	55
69.07	70
69.08	60
69.09	70
69.1	62
69.11	63
69.12	71
69.13	67
69.14	68
69.15	54
69.16	66
69.17	54
69.18	74
69.19	73
69.2	72
69.21	62
69.22	57
69.23	75
69.24	57
69.25	70
69.26	65
69.27	58
69.28	61
69.29	71
69.3	42
69.31	71
69.32	70
69.33	73
69.34	65
69.35	49
69.36	50
69.37	73
69.38	56
69.39	70
69.4	75
69.41	91
69.42	64
69.43	65
69.44	51
69.45	61
69.46	58
69.47	78
69.48	74
69.49	77
69.5	62
69.51	54
69.52	80
69.53	69
69.54	79
69.55	54
69.56	50
69.57	61
69.58	67
69.59	71
69.6	58
69.61	61
69.62	59
69.63	57
69.64	69
69.65	54
69.66	63
69.67	65
69.68	56
69.69	68
69.7	71
69.71	66
69.72	61
69.73	57
69.74	67
69.75	67
69.76	70
69.77	69
69.78	66
69.79	66
69.8	64
69.81	60
69.82	65
69.83	59
69.84	51
69.85	75
69.86	59
69.87	76
69.88	60
69.89	69
69.9	55
69.91	71
69.92	57
69.93	75
69.94	84
69.95	57
69.96	70
69.97	70
69.98	71
69.99	80
70	69
70.01	70
70.02	68
70.03	67
70.04	61
70.05	66
70.06	74
70.07	74
70.08	48
70.09	51
70.1	54
70.11	64
70.12	60
70.13	62
70.14	66
70.15	72
70.16	72
70.17	73
70.18	67
70.19	67
70.2	51
70.21	64
70.22	70
70.23	59
70.24	54
70.25	78
70.26	68
70.27	68
70.28	72
70.29	56
70.3	65
70.31	66
70.32	74
70.33	62
70.34	59
70.35	63
70.36	64
70.37	71
70.38	70
70.39	65
70.4	65
70.41	63
70.42	72
70.43	55
70.44	66
70.45	74
70.46	48
70.47	61
70.48	61
70.49	63
70.5	76
70.51	77
70.52	62
70.53	58
70.54	72
70.55	65
70.56	51
70.57	65
70.58	64
70.59	72
70.6	69
70.61	65
70.62	55
70.63	56
70.64	58
70.65	61
70.66	69
70.67	66
70.68	50
70.69	68
70.7	62
70.71	72
70.72	56
70.73	52
70.74	63
70.75	73
70.76	59
70.77	65
70.78	60
70.79	76
70.8	62
70.81	56
70.82	52
70.83	65
70.84	64
70.85	61
70.86	61
70.87	57
70.88	67
70.89	59
70.9	48
70.91	68
70.92	59
70.93	57
70.94	55
70.95	75
70.96	81
70.97	55
70.98	77
70.99	71
71	66
71.01	68
71.02	52
71.03	66
71.04	77
71.05	58
71.06	54
71.07	42
71.08	57
71.09	61
71.1	74
71.11	60
71.12	68
71.13	63
71.14	59
71.15	71
71.16	62
71.17	67
71.18	68
71.19	69
71.2	56
71.21	54
71.22	60
71.23	56
71.24	67
71.25	58
71.26	63
71.27	64
71.28	66
71.29	73
71.3	55
71.31	54
71.32	64
71.33	74
71.34	62
71.35	70
71.36	61
71.37	63
71.38	56
71.39	67
71.4	64
71.41	59
71.42	54
71.43	71
71.44	51
71.45	73
71.46	62
71.47	68
71.48	51
71.49	57
71.5	58
71.51	69
71.52	55
71.53	65
71.54	51
71.55	67
71.56	60
71.57	64
71.58	63
71.59	63
71.6	45
71.61	65
71.62	52
71.63	37
71.64	63
71.65	60
71.66	55
71.67	66
71.68	50
71.69	56
71.7	59
71.71	71
71.72	67
71.73	60
71.74	62
71.75	65
71.76	67
71.77	63
71.78	78
71.79	63
71.8	74
71.81	58
71.82	65
71.83	66
71.84	57
71.85	60
71.86	67
71.87	57
71.88	65
71.89	60
71.9	85
71.91	69
71.92	70
71.93	48
71.94	65
71.95	59
71.96	66
71.97	74
71.98	60
71.99	53
72	60
72.01	54
72.02	72
72.03	57
72.04	62
72.05	69
72.06	66
72.07	51
72.08	59
72.09	54
72.1	63
72.11	55
72.12	65
72.13	52
72.14	54
72.15	68
72.16	66
72.17	64
72.18	66
72.19	73
72.2	63
72.21	66
72.22	72
72.23	64
72.24	59
72.25	67
72.26	64
72.27	62
72.28	61
72.29	62
72.3	63
72.31	57
72.32	58
72.33	67
72.34	71
72.35	49
72.36	61
72.37	57
72.38	61
72.39	67
72.4	63
72.41	54
72.42	62
72.43	61
72.44	62
72.45	60
72.46	79
72.47	69
72.48	57
72.49	61
72.5	61
72.51	65
72.52	64
72.53	58
72.54	51
72.55	57
72.56	52
72.57	65
72.58	64
72.59	60
72.6	64
72.61	69
72.62	55
72.63	60
72.64	54
72.65	61
72.66	60
72.67	34
72.68	62
72.69	53
72.7	61
72.71	64
72.72	62
72.73	68
72.74	63
72.75	70
72.76	66
72.77	67
72.78	74
72.79	58
72.8	62
72.81	72
72.82	60
72.83	62
72.84	65
72.85	76
72.86	61
72.87	76
72.88	65
72.89	71
72.9	55
72.91	65
72.92	77
72.93	63
72.94	59
72.95	73
72.96	59
72.97	50
72.98	57
72.99	64
73	52
73.01	65
73.02	62
73.03	68
73.04	76
73.05	57
73.06	60
73.07	53
73.08	64
73.09	58
73.1	70
73.11	63
73.12	52
73.13	60
73.14	68
73.15	80
73.16	60
73.17	69
73.18	69
73.19	60
73.2	61
73.21	57
73.22	76
73.23	74
73.24	53
73.25	73
73.26	48
73.27	52
73.28	51
73.29	69
73.3	73
73.31	69
73.32	66
73.33	81
73.34	61
73.35	65
73.36	67
73.37	72
73.38	61
73.39	65
73.4	62
73.41	64
73.42	53
73.43	55
73.44	55
73.45	59
73.46	64
73.47	71
73.48	57
73.49	56
73.5	77
73.51	60
73.52	63
73.53	68
73.54	47
73.55	60
73.56	56
73.57	55
73.58	59
73.59	49
73.6	65
73.61	60
73.62	65
73.63	66
73.64	51
73.65	52
73.66	65
73.67	64
73.68	70
73.69	64
73.7	52
73.71	49
73.72	65
73.73	81
73.74	77
73.75	56
73.76	59
73.77	54
73.78	55
73.79	68
73.8	56
73.81	54
73.82	50
73.83	59
73.84	68
73.85	48
73.86	48
73.87	65
73.88	65
73.89	69
73.9	51
73.91	65
73.92	60
73.93	67
73.94	54
73.95	50
73.96	56
73.97	51
73.98	59
73.99	61
74	77
74.01	55
74.02	59
74.03	57
74.04	52
74.05	52
74.06	47
74.07	71
74.08	66
74.09	51
74.1	72
74.11	61
74.12	51
74.13	48
74.14	68
74.15	46
74.16	61
74.17	64
74.18	61
74.19	54
74.2	74
74.21	79
74.22	64
74.23	51
74.24	86
74.25	57
74.26	62
74.27	64
74.28	64
74.29	73
74.3	59
74.31	51
74.32	52
74.33	61
74.34	63
74.35	57
74.36	53
74.37	60
74.38	57
74.39	67
74.4	60
74.41	71
74.42	73
74.43	57
74.44	68
74.45	54
74.46	46
74.47	70
74.48	66
74.49	61
74.5	63
74.51	69
74.52	61
74.53	66
74.54	65
74.55	80
74.56	53
74.57	63
74.58	64
74.59	66
74.6	73
74.61	63
74.62	69
74.63	52
74.64	40
74.65	62
74.66	54
74.67	59
74.68	54
74.69	63
74.7	64
74.71	55
74.72	54
74.73	60
74.74	63
74.75	65
74.76	73
74.77	62
74.78	66
74.79	58
74.8	70
74.81	51
74.82	59
74.83	66
74.84	68
74.85	70
74.86	55
74.87	88
74.88	81
74.89	66
74.9	74
74.91	65
74.92	62
74.93	59
74.94	61
74.95	67
74.96	67
74.97	62
74.98	60
74.99	51
75	52
75.01	49
75.02	57
75.03	57
75.04	44
75.05	70
75.06	55
75.07	57
75.08	48
75.09	59
75.1	50
75.11	49
75.12	63
75.13	65
75.14	50
75.15	66
75.16	52
75.17	61
75.18	55
75.19	50
75.2	53
75.21	56
75.22	61
75.23	56
75.24	64
75.25	69
75.26	56
75.27	66
75.28	65
75.29	56
75.3	67
75.31	64
75.32	54
75.33	50
75.34	52
75.35	50
75.36	59
75.37	56
75.38	56
75.39	51
75.4	65
75.41	51
75.42	61
75.43	57
75.44	66
75.45	66
75.46	57
75.47	72
75.48	60
75.49	69
75.5	57
75.51	52
75.52	72
75.53	59
75.54	51
75.55	50
75.56	78
75.57	47
75.58	74
75.59	54
75.6	46
75.61	66
75.62	72
75.63	57
75.64	68
75.65	63
75.66	67
75.67	75
75.68	66
75.69	60
75.7	55
75.71	63
75.72	64
75.73	46
75.74	56
75.75	56
75.76	54
75.77	66
75.78	60
75.79	74
75.8	66
75.81	55
75.82	51
75.83	66
75.84	75
75.85	62
75.86	71
75.87	64
75.88	63
75.89	61
75.9	47
75.91	74
75.92	52
75.93	61
75.94	49
75.95	76
75.96	56
75.97	47
75.98	64
75.99	61
76	68
76.01	70
76.02	50
76.03	54
76.04	63
76.05	64
76.06	67
76.07	61
76.08	66
76.09	40
76.1	60
76.11	55
76.12	50
76.13	42
76.14	66
76.15	51
76.16	63
76.17	58
76.18	60
76.19	68
76.2	56
76.21	56
76.22	68
76.23	66
76.24	58
76.25	66
76.26	58
76.27	66
76.28	69
76.29	54
76.3	59
76.31	52
76.32	52
76.33	56
76.34	59
76.35	53
76.36	60
76.37	53
76.38	55
76.39	52
76.4	52
76.41	54
76.42	60
76.43	50
76.44	58
76.45	63
76.46	63
76.47	60
76.48	53
76.49	56
76.5	65
76.51	73
76.52	51
76.53	71
76.54	59
76.55	48
76.56	56
76.57	58
76.58	49
76.59	47
76.6	58
76.61	70
76.62	60
76.63	61
76.64	58
76.65	60
76.66	72
76.67	63
76.68	60
76.69	50
76.7	54
76.71	60
76.72	57
76.73	68
76.74	51
76.75	64
76.76	67
76.77	44
76.78	61
76.79	75
76.8	68
76.81	66
76.82	52
76.83	51
76.84	51
76.85	70
76.86	60
76.87	54
76.88	60
76.89	49
76.9	50
76.91	53
76.92	58
76.93	59
76.94	64
76.95	53
76.96	66
76.97	66
76.98	58
76.99	54
77	68
77.01	65
77.02	66
77.03	58
77.04	51
77.05	58
77.06	45
77.07	61
77.08	53
77.09	62
77.1	64
77.11	61
77.12	79
77.13	54
77.14	66
77.15	54
77.16	59
77.17	57
77.18	58
77.19	63
77.2	63
77.21	53
77.22	67
77.23	47
77.24	66
77.25	53
77.26	56
77.27	64
77.28	47
77.29	61
77.3	54
77.31	67
77.32	46
77.33	72
77.34	61
77.35	57
77.36	55
77.37	55
77.38	53
77.39	56
77.4	68
77.41	71
77.42	60
77.43	59
77.44	57
77.45	58
77.46	65
77.47	54
77.48	54
77.49	66
77.5	44
77.51	58
77.52	39
77.53	50
77.54	67
77.55	70
77.56	78
77.57	57
77.58	72
77.59	58
77.6	65
77.61	51
77.62	73
77.63	48
77.64	54
77.65	53
77.66	69
77.67	60
77.68	55
77.69	64
77.7	50
77.71	59
77.72	63
77.73	66
77.74	58
77.75	47
77.76	54
77.77	67
77.78	55
77.79	55
77.8	63
77.81	74
77.82	66
77.83	48
77.84	63
77.85	64
77.86	72
77.87	69
77.88	61
77.89	65
77.9	74
77.91	62
77.92	50
77.93	81
77.94	68
77.95	84
77.96	58
77.97	69
77.98	65
77.99	74
78	71
78.01	75
78.02	78
78.03	86
78.04	88
78.05	92
78.06	89
78.07	83
78.08	107
78.09	105
78.1	82
78.11	95
78.12	113
78.13	122
78.14	136
78.15	123
78.16	125
78.17	128
78.18	127
78.19	125
78.2	125
78.21	152
78.22	123
78.23	142
78.24	144
78.25	150
78.26	145
78.27	142
78.28	120
78.29	115
78.3	119
78.31	110
78.32	113
78.33	114
78.34	129
78.35	121
78.36	115
78.37	120
78.38	114
78.39	112
78.4	102
78.41	119
78.42	115
78.43	97
78.44	108
78.45	87
78.46	109
78.47	101
78.48	110
78.49	94
78.5	110
78.51	94
78.52	104
78.53	87
78.54	98
78.55	74
78.56	90
78.57	82
78.58	92
78.59	88
78.6	66
78.61	76
78.62	79
78.63	66
78.64	70
78.65	68
78.66	70
78.67	68
78.68	74
78.69	63
78.7	76
78.71	76
78.72	70
78.73	75
78.74	63
78.75	73
78.76	53
78.77	75
78.78	68
78.79	53
78.8	62
78.81	63
78.82	59
78.83	76
78.84	61
78.85	61
78.86	75
78.87	66
78.88	54
78.89	74
78.9	55
78.91	58
78.92	63
78.93	59
78.94	61
78.95	59
78.96	57
78.97	46
78.98	56
78.99	69
79	57
79.01	55
79.02	66
79.03	67
79.04	57
79.05	65
79.06	65
79.07	61
79.08	54
79.09	46
79.1	66
79.11	63
79.12	43
79.13	56
79.14	46
79.15	48
79.16	63
79.17	77
79.18	61
79.19	47
79.2	64
79.21	57
79.22	61
79.23	49
79.24	52
79.25	45
79.26	54
79.27	70
79.28	57
79.29	56
79.3	64
79.31	70
79.32	66
79.33	65
79.34	50
79.35	64
79.36	49
79.37	50
79.38	61
79.39	71
79.4	70
79.41	52
79.42	57
79.43	70
79.44	62
79.45	55
79.46	53
79.47	53
79.48	70
79.49	65
79.5	70
79.51	49
79.52	55
79.53	78
79.54	56
79.55	62
79.56	49
79.57	45
79.58	51
79.59	64
79.6	56
79.61	47
79.62	50
79.63	49
79.64	61
79.65	58
79.66	63
79.67	66
79.68	50
79.69	57
79.7	59
79.71	60
79.72	49
79.73	51
79.74	51
79.75	61
79.76	54
79.77	72
79.78	53
79.79	64
79.8	58
79.81	40
79.82	51
79.83	67
79.84	66
79.85	57
79.86	67
79.87	58
79.88	50
79.89	54
79.9	66
79.91	60
79.92	61
79.93	67
79.94	50
79.95	56
79.96	64
79.97	56
79.98	67
79.99	55
80	66